# Pulseq sequence file
# Created by MATLAB mr toolbox

[VERSION]
major 1
minor 4
revision 1

[DEFINITIONS]
AdcRasterTime 2e-06 
BlockDurationRaster 4e-06 
CESTfreqOffsets 0 
EchoSpacing 0.000744 
EchoTime 0.085 
FOV 0.224 0.224 0.003 
GradientRasterTime 4e-06 
Name sedebra 
Nslices 1 
Nx 112 
Nx_low_org 112 
Ny 112 
Ny_low_meas 85 
Ny_low_org 112 
Ny_meas 84 
RSegment 3 
RadiofrequencyRasterTime 2e-06 
Ry 1 
Ry_low 1 
TEShift 0.000248 
TE_gre 0.00492 0.007384 
TotalDuration 36.409136 
adcDwell 4e-06 
all_kyShiftFactors_frame 0 0 0 
base_shift_between_seg 1 
bval 0 1000 
bvalue0_threshold 0 
bvec 0 0 0.12883 0 0 0 1 1 -0.991667 
dTE_esp_ratio 1 
debra_nechoes 3 
deltaTE 0.000745632087 
dkyScale_debra 2 
is2ndEcho 1 
isConventionalSegmentSpacing 0 
isDebra 1 
isFatSat 1 
isGEscanner 1 
isProlongedDebraBlip 0 
isRefscan 1 
isSSgradReversal 0 
isUseGreACS 1 
kqShiftPeriod 3 
nImagingFrame 2 
numSamples 168 
numSamplesLow 168 
num_adcs_1stEcho 588 
num_adcs_2ndEcho 595 
num_adcs_gre 84 
num_adcs_total 1267 
partFourierFactor 0.75 
pislquant 10 
ro_os 1 
samples_in_gre_acs 14112 

# Format of blocks:
# NUM DUR RF  GX  GY  GZ  ADC  EXT
[BLOCKS]
   1 841   1   0   0   1  0  1
   2 224   0   2   3   4  0  0
   3 346   0   0   0   0  0  0
   4 442   0   5   0   0  0  0
   5 196   0   7   6   0  0  0
   6 952   0   0   0   0  0  0
   7 841   2   0   0   1  0  1
   8 224   0   2   3   4  0  0
   9 962   0   0   0   0  0  0
  10 442   0   5   0   0  0  0
  11 196   0   7   6   0  0  0
  12 336   0   0   0   0  0  0
  13 841   3   0   0   1  0  1
  14 224   0   2   3   4  0  0
  15 346   0   0   0   0  0  0
  16 442   0   5   0   0  0  0
  17 196   0   7   6   0  0  0
  18 952   0   0   0   0  0  0
  19 841   4   0   0   1  0  1
  20 224   0   2   3   4  0  0
  21 962   0   0   0   0  0  0
  22 442   0   5   0   0  0  0
  23 196   0   7   6   0  0  0
  24 336   0   0   0   0  0  0
  25 841   5   0   0   1  0  1
  26 224   0   2   3   4  0  0
  27 346   0   0   0   0  0  0
  28 442   0   5   0   0  0  0
  29 196   0   7   6   0  0  0
  30 952   0   0   0   0  0  0
  31 841   6   0   0   1  0  1
  32 224   0   2   3   4  0  0
  33 962   0   0   0   0  0  0
  34 442   0   5   0   0  0  0
  35 196   0   7   6   0  0  0
  36 336   0   0   0   0  0  0
  37 841   7   0   0   1  0  1
  38 224   0   2   3   4  0  0
  39 346   0   0   0   0  0  0
  40 442   0   5   0   0  0  0
  41 196   0   7   6   0  0  0
  42 952   0   0   0   0  0  0
  43 841   8   0   0   1  0  1
  44 224   0   2   3   4  0  0
  45 962   0   0   0   0  0  0
  46 442   0   5   0   0  0  0
  47 196   0   7   6   0  0  0
  48 336   0   0   0   0  0  0
  49 841   9   0   0   1  0  1
  50 224   0   2   3   4  0  0
  51 346   0   0   0   0  0  0
  52 442   0   5   0   0  0  0
  53 196   0   7   6   0  0  0
  54 952   0   0   0   0  0  0
  55 841  10   0   0   1  0  1
  56 224   0   2   3   4  0  0
  57 962   0   0   0   0  0  0
  58 442   0   5   0   0  0  0
  59 196   0   7   6   0  0  0
  60 336   0   0   0   0  0  0
  61 841   6   0   0   1  0  1
  62 224   0   2   3   4  0  0
  63 346   0   0   0   0  0  0
  64 442   0   5   0   0  0  0
  65 196   0   7   6   0  0  0
  66 952   0   0   0   0  0  0
  67 841  11   0   0   1  0  1
  68 224   0   2   3   4  0  0
  69 962   0   0   0   0  0  0
  70 442   0   5   0   0  0  0
  71 196   0   7   6   0  0  0
  72 336   0   0   0   0  0  0
  73 841  12   0   0   1  0  1
  74 224   0   2   3   4  0  0
  75 346   0   0   0   0  0  0
  76 442   0   5   0   0  0  0
  77 196   0   7   6   0  0  0
  78 952   0   0   0   0  0  0
  79 841  13   0   0   1  0  1
  80 224   0   2   3   4  0  0
  81 962   0   0   0   0  0  0
  82 442   0   5   0   0  0  0
  83 196   0   7   6   0  0  0
  84 336   0   0   0   0  0  0
  85 841  14   0   0   1  0  1
  86 224   0   2   3   4  0  0
  87 346   0   0   0   0  0  0
  88 442   0   5   0   0  0  0
  89 196   0   7   6   0  0  0
  90 952   0   0   0   0  0  0
  91 841   1   0   0   1  0  1
  92 224   0   2   3   4  0  0
  93 962   0   0   0   0  0  0
  94 442   0   5   0   0  0  0
  95 196   0   7   6   0  0  0
  96 336   0   0   0   0  0  0
  97 841  15   0   0   1  0  1
  98 224   0   2   3   4  0  0
  99 346   0   0   0   0  0  0
 100 442   0   5   0   0  0  0
 101 196   0   7   6   0  0  0
 102 952   0   0   0   0  0  0
 103 841  16   0   0   1  0  1
 104 224   0   2   3   4  0  0
 105 962   0   0   0   0  0  0
 106 442   0   5   0   0  0  0
 107 196   0   7   6   0  0  0
 108 336   0   0   0   0  0  0
 109 841  13   0   0   1  0  1
 110 224   0   2   3   4  0  0
 111 346   0   0   0   0  0  0
 112 442   0   5   0   0  0  0
 113 196   0   7   6   0  0  0
 114 952   0   0   0   0  0  0
 115 841  17   0   0   1  0  1
 116 224   0   2   3   4  0  0
 117 962   0   0   0   0  0  0
 118 442   0   5   0   0  0  0
 119 196   0   7   6   0  0  0
 120 336   0   0   0   0  0  0
 121 841   5   0   0   1  0  1
 122 224   0   2   3   4  0  0
 123 346   0   0   0   0  0  0
 124 442   0   5   0   0  0  0
 125 196   0   7   6   0  0  0
 126 952   0   0   0   0  0  0
 127 841  18   0   0   1  0  1
 128 224   0   2   3   4  0  0
 129 962   0   0   0   0  0  0
 130 442   0   5   0   0  0  0
 131 196   0   7   6   0  0  0
 132 336   0   0   0   0  0  0
 133 841  19   0   0   1  0  1
 134 224   0   2   3   4  0  0
 135 346   0   0   0   0  0  0
 136 442   0   5   0   0  0  0
 137 196   0   7   6   0  0  0
 138 952   0   0   0   0  0  0
 139 841   9   0   0   1  0  1
 140 224   0   2   3   4  0  0
 141 962   0   0   0   0  0  0
 142 442   0   5   0   0  0  0
 143 196   0   7   6   0  0  0
 144 336   0   0   0   0  0  0
 145 841  20   0   0   1  0  1
 146 224   0   2   3   4  0  0
 147 346   0   0   0   0  0  0
 148 442   0   5   0   0  0  0
 149 196   0   7   6   0  0  0
 150 952   0   0   0   0  0  0
 151 841  10   0   0   1  0  1
 152 224   0   2   3   4  0  0
 153 962   0   0   0   0  0  0
 154 442   0   5   0   0  0  0
 155 196   0   7   6   0  0  0
 156 336   0   0   0   0  0  0
 157 841  18   0   0   1  0  1
 158 224   0   2   3   4  0  0
 159 346   0   0   0   0  0  0
 160 442   0   5   0   0  0  0
 161 196   0   7   6   0  0  0
 162 952   0   0   0   0  0  0
 163 841  21   0   0   1  0  1
 164 224   0   2   3   4  0  0
 165 962   0   0   0   0  0  0
 166 442   0   5   0   0  0  0
 167 196   0   7   6   0  0  0
 168 336   0   0   0   0  0  0
 169 841   4   0   0   1  0  1
 170 224   0   2   3   4  0  0
 171 346   0   0   0   0  0  0
 172 442   0   5   0   0  0  0
 173 196   0   7   6   0  0  0
 174 952   0   0   0   0  0  0
 175 841  22   0   0   1  0  1
 176 224   0   2   3   4  0  0
 177 962   0   0   0   0  0  0
 178 442   0   5   0   0  0  0
 179 196   0   7   6   0  0  0
 180 336   0   0   0   0  0  0
 181 841  14   0   0   1  0  1
 182 224   0   2   3   4  0  0
 183 346   0   0   0   0  0  0
 184 442   0   5   0   0  0  0
 185 196   0   7   6   0  0  0
 186 952   0   0   0   0  0  0
 187 841  15   0   0   1  0  1
 188 224   0   2   3   4  0  0
 189 962   0   0   0   0  0  0
 190 442   0   5   0   0  0  0
 191 196   0   7   6   0  0  0
 192 336   0   0   0   0  0  0
 193 841  23   0   0   1  0  1
 194 224   0   2   3   4  0  0
 195 346   0   0   0   0  0  0
 196 442   0   5   0   0  0  0
 197 196   0   7   6   0  0  0
 198 952   0   0   0   0  0  0
 199 841   2   0   0   1  0  1
 200 224   0   2   3   4  0  0
 201 962   0   0   0   0  0  0
 202 442   0   5   0   0  0  0
 203 196   0   7   6   0  0  0
 204 336   0   0   0   0  0  0
 205 841  22   0   0   1  0  1
 206 224   0   2   3   4  0  0
 207 346   0   0   0   0  0  0
 208 442   0   5   0   0  0  0
 209 196   0   7   6   0  0  0
 210 952   0   0   0   0  0  0
 211 841  17   0   0   1  0  1
 212 224   0   2   3   4  0  0
 213 962   0   0   0   0  0  0
 214 442   0   5   0   0  0  0
 215 196   0   7   6   0  0  0
 216 336   0   0   0   0  0  0
 217 841  11   0   0   1  0  1
 218 224   0   2   3   4  0  0
 219 346   0   0   0   0  0  0
 220 442   0   5   0   0  0  0
 221 196   0   7   6   0  0  0
 222 952   0   0   0   0  0  0
 223 841  24   0   0   1  0  1
 224 224   0   2   3   4  0  0
 225 962   0   0   0   0  0  0
 226 442   0   5   0   0  0  0
 227 196   0   7   6   0  0  0
 228 336   0   0   0   0  0  0
 229 841   7   0   0   1  0  1
 230 224   0   2   3   4  0  0
 231 346   0   0   0   0  0  0
 232 442   0   5   0   0  0  0
 233 196   0   7   6   0  0  0
 234 952   0   0   0   0  0  0
 235 841  20   0   0   1  0  1
 236 224   0   2   3   4  0  0
 237 962   0   0   0   0  0  0
 238 442   0   5   0   0  0  0
 239 196   0   7   6   0  0  0
 240 336   0   0   0   0  0  0
 241 841  20   0   0   1  0  1
 242 224   0   2   3   4  0  0
 243 346   0   0   0   0  0  0
 244 442   0   5   0   0  0  0
 245 196   0   7   6   0  0  0
 246 952   0   0   0   0  0  0
 247 841   7   0   0   1  0  1
 248 224   0   2   3   4  0  0
 249 962   0   0   0   0  0  0
 250 442   0   5   0   0  0  0
 251 196   0   7   6   0  0  0
 252 336   0   0   0   0  0  0
 253 841  24   0   0   1  0  1
 254 224   0   2   3   4  0  0
 255 346   0   0   0   0  0  0
 256 442   0   5   0   0  0  0
 257 196   0   7   6   0  0  0
 258 952   0   0   0   0  0  0
 259 841  11   0   0   1  0  1
 260 224   0   2   3   4  0  0
 261 962   0   0   0   0  0  0
 262 442   0   5   0   0  0  0
 263 196   0   7   6   0  0  0
 264 336   0   0   0   0  0  0
 265 841  17   0   0   1  0  1
 266 224   0   2   3   4  0  0
 267 346   0   0   0   0  0  0
 268 442   0   5   0   0  0  0
 269 196   0   7   6   0  0  0
 270 952   0   0   0   0  0  0
 271 841  22   0   0   1  0  1
 272 224   0   2   3   4  0  0
 273 962   0   0   0   0  0  0
 274 442   0   5   0   0  0  0
 275 196   0   7   6   0  0  0
 276 336   0   0   0   0  0  0
 277 841   2   0   0   1  0  1
 278 224   0   2   3   4  0  0
 279 346   0   0   0   0  0  0
 280 442   0   5   0   0  0  0
 281 196   0   7   6   0  0  0
 282 952   0   0   0   0  0  0
 283 841  23   0   0   1  0  1
 284 224   0   2   3   4  0  0
 285 962   0   0   0   0  0  0
[RF]
1      37.2184 1 2 0 104 0 0
2      37.2184 1 2 0 104 0 2.04204
3      37.2184 1 2 0 104 0 6.12611
4      37.2184 1 2 0 104 0 5.96903
5      37.2184 1 2 0 104 0 1.5708
6      37.2184 1 2 0 104 0 5.49779
7      37.2184 1 2 0 104 0 5.18363
8      37.2184 1 2 0 104 0 0.628319
9      37.2184 1 2 0 104 0 4.39823
10      37.2184 1 2 0 104 0 3.92699
11      37.2184 1 2 0 104 0 2.82743
12      37.2184 1 2 0 104 0 2.19911
13      37.2184 1 2 0 104 0 3.61283
14      37.2184 1 2 0 104 0 0.785398
15      37.2184 1 2 0 104 0 1.25664
16      37.2184 1 2 0 104 0 4.55531
17      37.2184 1 2 0 104 0 4.71239
18      37.2184 1 2 0 104 0 0.471239
19      37.2184 1 2 0 104 0 1.41372
20      37.2184 1 2 0 104 0 3.14159
21      37.2184 1 2 0 104 0 5.34071
22      37.2184 1 2 0 104 0 2.35619
23      37.2184 1 2 0 104 0 3.76991
24      37.2184 1 2 0 104 0 2.98451
25      134.648 3 4 0 100 -440.662 11.075
26      329.151 5 2 0 132 0 -0
27      658.301 5 2 0 132 0 1.5708

# Format of arbitrary gradients:
#   time_shape_id of 0 means default timing (stepping with grad_raster starting at 1/2 of grad_raster)
# id amplitude amp_shape_id time_shape_id delay
# ..      Hz/m       ..         ..          us
[GRADIENTS]
49 -4.95635e-11 6 7 708
51 -4.95635e-11 8 9 0
52 -4.95635e-11 10 11 0
53  4.95635e-11 12 13 0
54 -4.95635e-11 14 15 0
61 -1.65212e-11 6 16 708
62 -1.65212e-11 8 17 0
63 -1.65212e-11 14 18 0
65      -223214 6 7 708
66      -223214 8 9 0
67      -223214 10 11 0
68       223214 12 13 0
69      -223214 14 15 0
72     -74404.8 6 16 708
73     -74404.8 8 17 0
74     -74404.8 14 18 0

# Format of trapezoid gradients:
# id amplitude rise flat fall delay
# ..      Hz/m   us   us   us    us
[TRAP]
 1       444444  64 3000  64  40
 2 -1.33619e+06 192    0 192   0
 3  4.50578e-11  32  320  32   0
 4 -1.51984e+06 448    0 448   0
 5       297619  44 1680  44   0
 6 -4.50578e-11  32  320  32   0
 7  1.30892e+06 392    0 392   0
 8      -202922  32  320  32   0
 9       202922  32  320  32   0
10      -190239  32  320  32   0
11       190239  32  320  32   0
12      -177557  32  320  32   0
13       177557  32  320  32   0
14      -164874  32  320  32   0
15       164874  32  320  32   0
16      -152192  32  320  32   0
17       152192  32  320  32   0
18      -139509  32  320  32   0
19       139509  32  320  32   0
20      -126826  32  320  32   0
21       126826  32  320  32   0
22      -114144  32  320  32   0
23       114144  32  320  32   0
24      -101461  32  320  32   0
25       101461  32  320  32   0
26     -88778.4  32  320  32   0
27      88778.4  32  320  32   0
28     -76095.8  32  320  32   0
29      76095.8  32  320  32   0
30     -63413.1  32  320  32   0
31      63413.1  32  320  32   0
32     -50730.5  32  320  32   0
33      50730.5  32  320  32   0
34     -38047.9  32  320  32   0
35      38047.9  32  320  32   0
36     -25365.3  32  320  32   0
37      25365.3  32  320  32   0
38     -12682.6  32  320  32   0
39      12682.6  32  320  32   0
40  2.22045e-16   4 2499992   4   0
41  1.02192e+06 500 2500 500   0
42 -1.02192e+06 500 2500 500 8360
43       444444 132 3000 132   0
44 -1.52632e+06 456    0 456   0
45  1.83824e+06 544    0 544   0
46  -1.3253e+06 192    0 192   0
47   2.0276e-10 132    0 132   0
48       815395 120  504 120   0
50      -815395 120  504 120   0
55       921947 276    0 276   0
56  2.04713e-10 276    0 276   0
57            0   4  944   4   0
58      -811149 120  712 120   0
59       811149 120  712 120   0
60  2.89121e-10 192    0 192   0
64       913149 132    0 132   0
70       938147 276    0 276   0
71  1.30208e+06 192    0 192   0
75       879329 132    0 132   0
76       954322 276    0 276   0
77  1.27883e+06 192    0 192   0
78       845509 132    0 132   0
79       970497 276    0 276   0
80  1.25558e+06 192    0 192   0
81       176070 360 19316 360   0
82            0 360 19316 360   0
83 -1.35529e+06 360 19316 360   0

# Format of ADC events:
# id num dwell delay freq phase
# ..  ..    ns    us   Hz   rad
[ADC]
1 168 10000 44 0 1.5708
2 168 10000 44 0 0.471239
3 168 10000 44 0 1.41372
4 168 10000 44 0 4.39823
5 168 10000 44 0 3.14159
6 168 10000 44 0 3.92699
7 168 10000 44 0 5.34071
8 168 10000 44 0 5.96903
9 168 10000 44 0 2.35619
10 168 10000 44 0 0.785398
11 168 10000 44 0 1.25664
12 168 10000 44 0 3.76991
13 168 10000 44 0 2.04204
14 168 10000 44 0 4.71239
15 168 10000 44 0 2.82743
16 168 10000 44 0 2.98451
17 168 10000 44 0 5.18363
18 168 10000 44 0 3.61283
19 168 10000 44 0 4.55531
20 168 10000 44 0 0
21 168 10000 44 0 2.19911
22 168 10000 44 0 5.49779
23 168 10000 44 0 0.628319
24 168 10000 44 0 6.12611
25 168 4000 36 0 0
26 168 4000 36 0 0

# Format of extension lists:
# id type ref next_id
# next_id of 0 terminates the list
# Extension list is followed by extension specifications
[EXTENSIONS]
1 1 1 0
2 1 2 0
3 1 3 0
4 1 4 0
5 1 5 0
6 1 6 0
7 2 1 0
8 1 7 0
9 1 8 0

# Extension specification for digital output and input triggers:
# id type channel delay (us) duration (us)
extension TRIGGERS 2
1 1 3 0 20

# Extension specification for setting labels:
# id set labelstring
extension LABELSET 1
1 3 TRID
2 4 TRID
3 6 TRID
4 5 TRID
5 7 TRID
6 14 TRID
7 12 TRID
8 15 TRID

# Sequence Shapes
[SHAPES]

shape_id 1
num_samples 1500
0.000106738538
0.00032065069
0.000535157008
0.000750274438
0.000966019999
0.00118241078
0.00139946393
0.00161719666
0.00183562621
0.00205476989
0.00227464502
0.00249526897
0.00271665912
0.00293883287
0.00316180763
0.00338560081
0.00361022983
0.00383571208
0.00406206493
0.00428930576
0.00451745188
0.00474652059
0.00497652912
0.00520749468
0.00543943438
0.00567236531
0.00590630446
0.00614126874
0.00637727498
0.00661433992
0.0068524802
0.00709171235
0.00733205276
0.00757351775
0.00781612346
0.00805988593
0.00830482103
0.0085509445
0.00879827191
0.00904681867
0.00929660001
0.00954763099
0.00979992649
0.0100535012
0.0103083695
0.0105645458
0.010822044
0.011080878
0.0113410615
0.0116026077
0.0118655297
0.0121298405
0.0123955527
0.0126626785
0.0129312301
0.0132012191
0.0134726572
0.0137455556
0.014019925
0.0142957761
0.0145731193
0.0148519643
0.0151323209
0.0154141983
0.0156976055
0.015982551
0.0162690431
0.0165570896
0.016846698
0.0171378754
0.0174306285
0.0177249638
0.018020887
0.0183184037
0.018617519
0.0189182377
0.0192205638
0.0195245014
0.0198300537
0.0201372237
0.0204460139
0.0207564264
0.0210684625
0.0213821235
0.02169741
0.022014322
0.0223328592
0.0226530208
0.0229748052
0.0232982108
0.023623235
0.0239498749
0.0242781271
0.0246079876
0.0249394519
0.0252725149
0.0256071709
0.0259434138
0.0262812369
0.0266206328
0.0269615937
0.0273041111
0.0276481759
0.0279937785
0.0283409086
0.0286895555
0.0290397077
0.0293913532
0.0297444792
0.0300990726
0.0304551193
0.0308126049
0.0311715143
0.0315318315
0.0318935402
0.0322566232
0.0326210629
0.0329868407
0.0333539378
0.0337223342
0.0340920097
0.0344629431
0.0348351128
0.0352084964
0.0355830706
0.0359588118
0.0363356955
0.0367136965
0.037092789
0.0374729464
0.0378541414
0.0382363462
0.0386195319
0.0390036693
0.0393887283
0.039774678
0.0401614869
0.0405491229
0.0409375528
0.0413267431
0.0417166594
0.0421072664
0.0424985283
0.0428904086
0.0432828698
0.0436758739
0.0440693822
0.044463355
0.0448577522
0.0452525326
0.0456476545
0.0460430754
0.0464387522
0.0468346407
0.0472306963
0.0476268735
0.0480231261
0.0484194072
0.048815669
0.0492118631
0.0496079403
0.0500038507
0.0503995437
0.0507949678
0.0511900709
0.0515848
0.0519791016
0.0523729213
0.0527662039
0.0531588937
0.053550934
0.0539422676
0.0543328364
0.0547225817
0.0551114439
0.0554993628
0.0558862774
0.0562721262
0.0566568467
0.0570403758
0.0574226496
0.0578036038
0.0581831729
0.0585612912
0.0589378918
0.0593129076
0.0596862704
0.0600579115
0.0604277615
0.0607957502
0.061161807
0.0615258602
0.0618878378
0.062247667
0.0626052743
0.0629605855
0.0633135259
0.06366402
0.0640119918
0.0643573644
0.0647000605
0.0650400021
0.0653771107
0.0657113069
0.0660425108
0.0663706421
0.0666956195
0.0670173616
0.0673357859
0.0676508096
0.0679623493
0.068270321
0.06857464
0.0688752214
0.0691719793
0.0694648275
0.0697536793
0.0700384473
0.0703190436
0.0705953801
0.0708673677
0.071134917
0.0713979383
0.0716563412
0.0719100347
0.0721589277
0.0724029282
0.0726419442
0.0728758828
0.073104651
0.0733281552
0.0735463014
0.0737589952
0.0739661419
0.0741676461
0.0743634124
0.0745533447
0.0747373467
0.0749153217
0.0750871727
0.0752528022
0.0754121126
0.0755650057
0.0757113832
0.0758511465
0.0759841966
0.0761104342
0.0762297598
0.0763420736
0.0764472756
0.0765452656
0.076635943
0.076719207
0.0767949568
0.0768630912
0.0769235089
0.0769761083
0.0770207878
0.0770574455
0.0770859795
0.0771062877
0.0771182678
0.0771218174
0.0771168342
0.0771032156
0.0770808589
0.0770496616
0.0770095208
0.0769603338
0.0769019978
0.07683441
0.0767574675
0.0766710676
0.0765751073
0.076469484
0.0763540949
0.0762288374
0.0760936088
0.0759483065
0.0757928282
0.0756270716
0.0754509343
0.0752643144
0.0750671098
0.0748592187
0.0746405397
0.0744109711
0.0741704118
0.0739187606
0.0736559169
0.0733817799
0.0730962493
0.072799225
0.0724906073
0.0721702964
0.0718381933
0.071494199
0.0711382148
0.0707701425
0.0703898841
0.0699973421
0.0695924193
0.0691750188
0.0687450443
0.0683023998
0.0678469897
0.0673787189
0.0668974927
0.0664032169
0.0658957979
0.0653751424
0.0648411576
0.0642937514
0.0637328322
0.0631583087
0.0625700905
0.0619680876
0.0613522106
0.0607223707
0.0600784797
0.05942045
0.0587481949
0.0580616279
0.0573606635
0.0566452169
0.0559152037
0.0551705406
0.0544111446
0.0536369337
0.0528478267
0.0520437429
0.0512246025
0.0503903267
0.0495408371
0.0486760564
0.0477959079
0.0469003161
0.0459892059
0.0450625033
0.0441201353
0.0431620294
0.0421881144
0.0411983199
0.0401925761
0.0391708147
0.0381329678
0.0370789689
0.0360087522
0.034922253
0.0338194075
0.032700153
0.0315644278
0.0304121713
0.0292433239
0.0280578269
0.0268556228
0.0256366553
0.024400869
0.0231482096
0.0218786242
0.0205920606
0.0192884681
0.017967797
0.0166299986
0.0152750257
0.013902832
0.0125133726
0.0111066037
0.00968248265
0.00824096813
0.00678202002
0.00530559944
0.00381166877
0.00230019165
0.000771133007
0.000775540962
0.00233986276
0.00392186358
0.00552157331
0.0071390205
0.0087742324
0.0104272349
0.0120980525
0.0137867083
0.0154932243
0.0172176208
0.0189599168
0.0207201301
0.0224982767
0.0242943717
0.0261084283
0.0279404586
0.0297904731
0.0316584808
0.0335444896
0.0354485054
0.0373705331
0.0393105759
0.0412686356
0.0432447124
0.0452388051
0.047250911
0.0492810259
0.0513291441
0.0533952582
0.0554793595
0.0575814376
0.0597014808
0.0618394755
0.0639954068
0.0661692583
0.0683610118
0.0705706477
0.0727981447
0.0750434802
0.0773066297
0.0795875672
0.0818862653
0.0842026947
0.0865368248
0.0888886231
0.0912580559
0.0936450874
0.0960496806
0.0984717966
0.100911395
0.103368434
0.10584287
0.108334657
0.110843749
0.113370096
0.11591365
0.118474358
0.121052167
0.123647021
0.126258863
0.128887637
0.131533281
0.134195733
0.136874932
0.13957081
0.142283303
0.145012342
0.147757856
0.150519775
0.153298025
0.156092531
0.158903217
0.161730005
0.164572816
0.167431566
0.170306175
0.173196556
0.176102625
0.179024292
0.181961468
0.184914062
0.187881981
0.190865131
0.193863416
0.196876738
0.199904997
0.202948093
0.206005923
0.209078384
0.212165368
0.21526677
0.218382479
0.221512387
0.224656379
0.227814343
0.230986164
0.234171725
0.237370906
0.240583589
0.243809652
0.247048971
0.250301423
0.25356688
0.256845216
0.260136301
0.263440004
0.266756193
0.270084735
0.273425494
0.276778334
0.280143116
0.283519701
0.286907947
0.290307713
0.293718853
0.297141223
0.300574676
0.304019062
0.307474234
0.310940039
0.314416324
0.317902937
0.321399721
0.324906521
0.328423177
0.331949531
0.335485422
0.339030688
0.342585165
0.346148689
0.349721094
0.353302213
0.356891877
0.360489917
0.364096161
0.367710437
0.371332572
0.374962391
0.378599718
0.382244376
0.385896186
0.389554971
0.393220548
0.396892736
0.400571352
0.404256213
0.407947133
0.411643926
0.415346405
0.419054382
0.422767667
0.42648607
0.430209399
0.433937463
0.437670068
0.44140702
0.445148123
0.448893181
0.452641997
0.456394373
0.46015011
0.463909008
0.467670866
0.471435484
0.475202657
0.478972184
0.48274386
0.48651748
0.490292839
0.49406973
0.497847947
0.501627281
0.505407524
0.509188466
0.512969899
0.51675161
0.52053339
0.524315026
0.528096305
0.531877016
0.535656943
0.539435874
0.543213593
0.546989885
0.550764535
0.554537326
0.558308041
0.562076464
0.565842377
0.569605563
0.573365801
0.577122875
0.580876565
0.584626651
0.588372914
0.592115133
0.595853089
0.599586561
0.603315327
0.607039168
0.610757861
0.614471185
0.618178919
0.62188084
0.625576727
0.629266358
0.63294951
0.636625962
0.64029549
0.643957874
0.64761289
0.651260316
0.654899929
0.658531508
0.662154831
0.665769674
0.669375817
0.672973037
0.676561112
0.68013982
0.683708941
0.687268253
0.690817534
0.694356565
0.697885124
0.701402991
0.704909947
0.70840577
0.711890243
0.715363146
0.71882426
0.722273367
0.725710249
0.729134689
0.732546469
0.735945374
0.739331187
0.742703692
0.746062676
0.749407922
0.752739217
0.756056348
0.759359103
0.762647268
0.765920633
0.769178986
0.772422119
0.77564982
0.778861882
0.782058096
0.785238255
0.788402153
0.791549584
0.794680344
0.797794227
0.800891031
0.803970554
0.807032595
0.810076951
0.813103425
0.816111817
0.81910193
0.822073567
0.825026531
0.82796063
0.830875667
0.833771452
0.836647792
0.839504497
0.842341378
0.845158245
0.847954913
0.850731194
0.853486905
0.856221861
0.85893588
0.861628781
0.864300384
0.86695051
0.869578981
0.872185622
0.874770257
0.877332714
0.879872819
0.882390402
0.884885293
0.887357325
0.88980633
0.892232144
0.894634602
0.897013542
0.899368803
0.901700226
0.904007652
0.906290925
0.90854989
0.910784394
0.912994285
0.915179413
0.917339628
0.919474784
0.921584734
0.923669337
0.925728448
0.927761927
0.929769636
0.931751436
0.933707193
0.935636773
0.937540043
0.939416873
0.941267134
0.943090699
0.944887443
0.946657242
0.948399975
0.950115522
0.951803765
0.953464588
0.955097875
0.956703515
0.958281398
0.959831413
0.961353454
0.962847416
0.964313196
0.965750692
0.967159806
0.968540438
0.969892495
0.971215882
0.972510508
0.973776283
0.975013119
0.976220931
0.977399635
0.978549148
0.979669392
0.980760288
0.981821761
0.982853736
0.983856143
0.984828911
0.985771973
0.986685263
0.987568718
0.988422276
0.989245878
0.990039467
0.990802986
0.991536383
0.992239608
0.99291261
0.993555343
0.994167763
0.994749825
0.995301491
0.995822721
0.996313479
0.996773731
0.997203445
0.99760259
0.997971139
0.998309066
0.998616347
0.998892962
0.99913889
0.999354115
0.999538621
0.999692396
0.999815429
0.999907711
0.999969236
1
1
0.999969236
0.999907711
0.999815429
0.999692396
0.999538621
0.999354115
0.99913889
0.998892962
0.998616347
0.998309066
0.997971139
0.99760259
0.997203445
0.996773731
0.996313479
0.995822721
0.995301491
0.994749825
0.994167763
0.993555343
0.99291261
0.992239608
0.991536383
0.990802986
0.990039467
0.989245878
0.988422276
0.987568718
0.986685263
0.985771973
0.984828911
0.983856143
0.982853736
0.981821761
0.980760288
0.979669392
0.978549148
0.977399635
0.976220931
0.975013119
0.973776283
0.972510508
0.971215882
0.969892495
0.968540438
0.967159806
0.965750692
0.964313196
0.962847416
0.961353454
0.959831413
0.958281398
0.956703515
0.955097875
0.953464588
0.951803765
0.950115522
0.948399975
0.946657242
0.944887443
0.943090699
0.941267134
0.939416873
0.937540043
0.935636773
0.933707193
0.931751436
0.929769636
0.927761927
0.925728448
0.923669337
0.921584734
0.919474784
0.917339628
0.915179413
0.912994285
0.910784394
0.90854989
0.906290925
0.904007652
0.901700226
0.899368803
0.897013542
0.894634602
0.892232144
0.88980633
0.887357325
0.884885293
0.882390402
0.879872819
0.877332714
0.874770257
0.872185622
0.869578981
0.86695051
0.864300384
0.861628781
0.85893588
0.856221861
0.853486905
0.850731194
0.847954913
0.845158245
0.842341378
0.839504497
0.836647792
0.833771452
0.830875667
0.82796063
0.825026531
0.822073567
0.81910193
0.816111817
0.813103425
0.810076951
0.807032595
0.803970554
0.800891031
0.797794227
0.794680344
0.791549584
0.788402153
0.785238255
0.782058096
0.778861882
0.77564982
0.772422119
0.769178986
0.765920633
0.762647268
0.759359103
0.756056348
0.752739217
0.749407922
0.746062676
0.742703692
0.739331187
0.735945374
0.732546469
0.729134689
0.725710249
0.722273367
0.71882426
0.715363146
0.711890243
0.70840577
0.704909947
0.701402991
0.697885124
0.694356565
0.690817534
0.687268253
0.683708941
0.68013982
0.676561112
0.672973037
0.669375817
0.665769674
0.662154831
0.658531508
0.654899929
0.651260316
0.64761289
0.643957874
0.64029549
0.636625962
0.63294951
0.629266358
0.625576727
0.62188084
0.618178919
0.614471185
0.610757861
0.607039168
0.603315327
0.599586561
0.595853089
0.592115133
0.588372914
0.584626651
0.580876565
0.577122875
0.573365801
0.569605563
0.565842377
0.562076464
0.558308041
0.554537326
0.550764535
0.546989885
0.543213593
0.539435874
0.535656943
0.531877016
0.528096305
0.524315026
0.52053339
0.51675161
0.512969899
0.509188466
0.505407524
0.501627281
0.497847947
0.49406973
0.490292839
0.48651748
0.48274386
0.478972184
0.475202657
0.471435484
0.467670866
0.463909008
0.46015011
0.456394373
0.452641997
0.448893181
0.445148123
0.44140702
0.437670068
0.433937463
0.430209399
0.42648607
0.422767667
0.419054382
0.415346405
0.411643926
0.407947133
0.404256213
0.400571352
0.396892736
0.393220548
0.389554971
0.385896186
0.382244376
0.378599718
0.374962391
0.371332572
0.367710437
0.364096161
0.360489917
0.356891877
0.353302213
0.349721094
0.346148689
0.342585165
0.339030688
0.335485422
0.331949531
0.328423177
0.324906521
0.321399721
0.317902937
0.314416324
0.310940039
0.307474234
0.304019062
0.300574676
0.297141223
0.293718853
0.290307713
0.286907947
0.283519701
0.280143116
0.276778334
0.273425494
0.270084735
0.266756193
0.263440004
0.260136301
0.256845216
0.25356688
0.250301423
0.247048971
0.243809652
0.240583589
0.237370906
0.234171725
0.230986164
0.227814343
0.224656379
0.221512387
0.218382479
0.21526677
0.212165368
0.209078384
0.206005923
0.202948093
0.199904997
0.196876738
0.193863416
0.190865131
0.187881981
0.184914062
0.181961468
0.179024292
0.176102625
0.173196556
0.170306175
0.167431566
0.164572816
0.161730005
0.158903217
0.156092531
0.153298025
0.150519775
0.147757856
0.145012342
0.142283303
0.13957081
0.136874932
0.134195733
0.131533281
0.128887637
0.126258863
0.123647021
0.121052167
0.118474358
0.11591365
0.113370096
0.110843749
0.108334657
0.10584287
0.103368434
0.100911395
0.0984717966
0.0960496806
0.0936450874
0.0912580559
0.0888886231
0.0865368248
0.0842026947
0.0818862653
0.0795875672
0.0773066297
0.0750434802
0.0727981447
0.0705706477
0.0683610118
0.0661692583
0.0639954068
0.0618394755
0.0597014808
0.0575814376
0.0554793595
0.0533952582
0.0513291441
0.0492810259
0.047250911
0.0452388051
0.0432447124
0.0412686356
0.0393105759
0.0373705331
0.0354485054
0.0335444896
0.0316584808
0.0297904731
0.0279404586
0.0261084283
0.0242943717
0.0224982767
0.0207201301
0.0189599168
0.0172176208
0.0154932243
0.0137867083
0.0120980525
0.0104272349
0.0087742324
0.0071390205
0.00552157331
0.00392186358
0.00233986276
0.000775540962
0.000771133007
0.00230019165
0.00381166877
0.00530559944
0.00678202002
0.00824096813
0.00968248265
0.0111066037
0.0125133726
0.013902832
0.0152750257
0.0166299986
0.017967797
0.0192884681
0.0205920606
0.0218786242
0.0231482096
0.024400869
0.0256366553
0.0268556228
0.0280578269
0.0292433239
0.0304121713
0.0315644278
0.032700153
0.0338194075
0.034922253
0.0360087522
0.0370789689
0.0381329678
0.0391708147
0.0401925761
0.0411983199
0.0421881144
0.0431620294
0.0441201353
0.0450625033
0.0459892059
0.0469003161
0.0477959079
0.0486760564
0.0495408371
0.0503903267
0.0512246025
0.0520437429
0.0528478267
0.0536369337
0.0544111446
0.0551705406
0.0559152037
0.0566452169
0.0573606635
0.0580616279
0.0587481949
0.05942045
0.0600784797
0.0607223707
0.0613522106
0.0619680876
0.0625700905
0.0631583087
0.0637328322
0.0642937514
