# Pulseq sequence file
# Created by MATLAB mr toolbox

[VERSION]
major 1
minor 5
revision 1

[DEFINITIONS]
AdcRasterTime 1e-07 
BlockDurationRaster 1e-05 
FOV 0.224 0.224 0.006 
GradientRasterTime 1e-05 
Name epi-diff 
RadiofrequencyRasterTime 1e-06 
TotalDuration 0.4053 

# Format of blocks:
# NUM DUR RF  GX  GY  GZ  ADC  EXT
[BLOCKS]
  1 1452   1   0   0   1  0  0
  2 319   2   0   0   2  0  1
  3 3681   0   0   0   3  0  0
  4 391   3   0   0   4  0  0
  5 1833   0   0   0   3  0  0
  6  38   0   5   6   0  0  0
  7  69   0   7   8   0  1  0
  8  69   0   9  10   0  1  0
  9  69   0   7  10   0  1  0
 10  69   0   9  10   0  1  0
 11  69   0   7  10   0  1  0
 12  69   0   9  10   0  1  0
 13  69   0   7  10   0  1  0
 14  69   0   9  10   0  1  0
 15  69   0   7  10   0  1  0
 16  69   0   9  10   0  1  0
 17  69   0   7  10   0  1  0
 18  69   0   9  10   0  1  0
 19  69   0   7  10   0  1  0
 20  69   0   9  10   0  1  0
 21  69   0   7  10   0  1  0
 22  69   0   9  10   0  1  0
 23  69   0   7  10   0  1  0
 24  69   0   9  10   0  1  0
 25  69   0   7  10   0  1  0
 26  69   0   9  10   0  1  0
 27  69   0   7  10   0  1  0
 28  69   0   9  10   0  1  0
 29  69   0   7  10   0  1  0
 30  69   0   9  10   0  1  0
 31  69   0   7  10   0  1  0
 32  69   0   9  10   0  1  0
 33  69   0   7  10   0  1  0
 34  69   0   9  10   0  1  0
 35  69   0   7  10   0  1  0
 36  69   0   9  10   0  1  0
 37  69   0   7  10   0  1  0
 38  69   0   9  10   0  1  0
 39  69   0   7  10   0  1  0
 40  69   0   9  10   0  1  0
 41  69   0   7  10   0  1  0
 42  69   0   9  10   0  1  0
 43  69   0   7  10   0  1  0
 44  69   0   9  10   0  1  0
 45  69   0   7  10   0  1  0
 46  69   0   9  10   0  1  0
 47  69   0   7  10   0  1  0
 48  69   0   9  10   0  1  0
 49  69   0   7  10   0  1  0
 50  69   0   9  10   0  1  0
 51  69   0   7  10   0  1  0
 52  69   0   9  10   0  1  0
 53  69   0   7  10   0  1  0
 54  69   0   9  10   0  1  0
 55  69   0   7  10   0  1  0
 56  69   0   9  10   0  1  0
 57  69   0   7  10   0  1  0
 58  69   0   9  10   0  1  0
 59  69   0   7  10   0  1  0
 60  69   0   9  10   0  1  0
 61  69   0   7  10   0  1  0
 62  69   0   9  10   0  1  0
 63  69   0   7  10   0  1  0
 64  69   0   9  10   0  1  0
 65  69   0   7  10   0  1  0
 66  69   0   9  10   0  1  0
 67  69   0   7  10   0  1  0
 68  69   0   9  10   0  1  0
 69  69   0   7  10   0  1  0
 70  69   0   9  10   0  1  0
 71  69   0   7  10   0  1  0
 72  69   0   9  10   0  1  0
 73  69   0   7  10   0  1  0
 74  69   0   9  10   0  1  0
 75  69   0   7  10   0  1  0
 76  69   0   9  10   0  1  0
 77  69   0   7  10   0  1  0
 78  69   0   9  10   0  1  0
 79  69   0   7  10   0  1  0
 80  69   0   9  10   0  1  0
 81  69   0   7  10   0  1  0
 82  69   0   9  10   0  1  0
 83  69   0   7  10   0  1  0
 84  69   0   9  10   0  1  0
 85  69   0   7  10   0  1  0
 86  69   0   9  10   0  1  0
 87  69   0   7  10   0  1  0
 88  69   0   9  10   0  1  0
 89  69   0   7  10   0  1  0
 90  69   0   9  11   0  1  0
 91 1452   1   0   0   1  0  0
 92 319   4   0   0   2  0  1
 93 3681   0   0   0   3  0  0
 94 391   5   0   0   4  0  0
 95 1833   0   0   0   3  0  0
 96  38   0   5   6   0  0  0
 97  69   0   7   8   0  1  0
 98  69   0   9  10   0  1  0
 99  69   0   7  10   0  1  0
100  69   0   9  10   0  1  0
101  69   0   7  10   0  1  0
102  69   0   9  10   0  1  0
103  69   0   7  10   0  1  0
104  69   0   9  10   0  1  0
105  69   0   7  10   0  1  0
106  69   0   9  10   0  1  0
107  69   0   7  10   0  1  0
108  69   0   9  10   0  1  0
109  69   0   7  10   0  1  0
110  69   0   9  10   0  1  0
111  69   0   7  10   0  1  0
112  69   0   9  10   0  1  0
113  69   0   7  10   0  1  0
114  69   0   9  10   0  1  0
115  69   0   7  10   0  1  0
116  69   0   9  10   0  1  0
117  69   0   7  10   0  1  0
118  69   0   9  10   0  1  0
119  69   0   7  10   0  1  0
120  69   0   9  10   0  1  0
121  69   0   7  10   0  1  0
122  69   0   9  10   0  1  0
123  69   0   7  10   0  1  0
124  69   0   9  10   0  1  0
125  69   0   7  10   0  1  0
126  69   0   9  10   0  1  0
127  69   0   7  10   0  1  0
128  69   0   9  10   0  1  0
129  69   0   7  10   0  1  0
130  69   0   9  10   0  1  0
131  69   0   7  10   0  1  0
132  69   0   9  10   0  1  0
133  69   0   7  10   0  1  0
134  69   0   9  10   0  1  0
135  69   0   7  10   0  1  0
136  69   0   9  10   0  1  0
137  69   0   7  10   0  1  0
138  69   0   9  10   0  1  0
139  69   0   7  10   0  1  0
140  69   0   9  10   0  1  0
141  69   0   7  10   0  1  0
142  69   0   9  10   0  1  0
143  69   0   7  10   0  1  0
144  69   0   9  10   0  1  0
145  69   0   7  10   0  1  0
146  69   0   9  10   0  1  0
147  69   0   7  10   0  1  0
148  69   0   9  10   0  1  0
149  69   0   7  10   0  1  0
150  69   0   9  10   0  1  0
151  69   0   7  10   0  1  0
152  69   0   9  10   0  1  0
153  69   0   7  10   0  1  0
154  69   0   9  10   0  1  0
155  69   0   7  10   0  1  0
156  69   0   9  10   0  1  0
157  69   0   7  10   0  1  0
158  69   0   9  10   0  1  0
159  69   0   7  10   0  1  0
160  69   0   9  10   0  1  0
161  69   0   7  10   0  1  0
162  69   0   9  10   0  1  0
163  69   0   7  10   0  1  0
164  69   0   9  10   0  1  0
165  69   0   7  10   0  1  0
166  69   0   9  10   0  1  0
167  69   0   7  10   0  1  0
168  69   0   9  10   0  1  0
169  69   0   7  10   0  1  0
170  69   0   9  10   0  1  0
171  69   0   7  10   0  1  0
172  69   0   9  10   0  1  0
173  69   0   7  10   0  1  0
174  69   0   9  10   0  1  0
175  69   0   7  10   0  1  0
176  69   0   9  10   0  1  0
177  69   0   7  10   0  1  0
178  69   0   9  10   0  1  0
179  69   0   7  10   0  1  0
180  69   0   9  11   0  1  0
181 1452   1   0   0   1  0  0
182 319   6   0   0   2  0  1
183 3681   0   0   0   3  0  0
184 391   7   0   0   4  0  0
185 1833   0   0   0   3  0  0
186  38   0   5   6   0  0  0
187  69   0   7   8   0  1  0
188  69   0   9  10   0  1  0
189  69   0   7  10   0  1  0
190  69   0   9  10   0  1  0
191  69   0   7  10   0  1  0
192  69   0   9  10   0  1  0
193  69   0   7  10   0  1  0
194  69   0   9  10   0  1  0
195  69   0   7  10   0  1  0
196  69   0   9  10   0  1  0
197  69   0   7  10   0  1  0
198  69   0   9  10   0  1  0
199  69   0   7  10   0  1  0
200  69   0   9  10   0  1  0
201  69   0   7  10   0  1  0
202  69   0   9  10   0  1  0
203  69   0   7  10   0  1  0
204  69   0   9  10   0  1  0
205  69   0   7  10   0  1  0
206  69   0   9  10   0  1  0
207  69   0   7  10   0  1  0
208  69   0   9  10   0  1  0
209  69   0   7  10   0  1  0
210  69   0   9  10   0  1  0
211  69   0   7  10   0  1  0
212  69   0   9  10   0  1  0
213  69   0   7  10   0  1  0
214  69   0   9  10   0  1  0
215  69   0   7  10   0  1  0
216  69   0   9  10   0  1  0
217  69   0   7  10   0  1  0
218  69   0   9  10   0  1  0
219  69   0   7  10   0  1  0
220  69   0   9  10   0  1  0
221  69   0   7  10   0  1  0
222  69   0   9  10   0  1  0
223  69   0   7  10   0  1  0
224  69   0   9  10   0  1  0
225  69   0   7  10   0  1  0
226  69   0   9  10   0  1  0
227  69   0   7  10   0  1  0
228  69   0   9  10   0  1  0
229  69   0   7  10   0  1  0
230  69   0   9  10   0  1  0
231  69   0   7  10   0  1  0
232  69   0   9  10   0  1  0
233  69   0   7  10   0  1  0
234  69   0   9  10   0  1  0
235  69   0   7  10   0  1  0
236  69   0   9  10   0  1  0
237  69   0   7  10   0  1  0
238  69   0   9  10   0  1  0
239  69   0   7  10   0  1  0
240  69   0   9  10   0  1  0
241  69   0   7  10   0  1  0
242  69   0   9  10   0  1  0
243  69   0   7  10   0  1  0
244  69   0   9  10   0  1  0
245  69   0   7  10   0  1  0
246  69   0   9  10   0  1  0
247  69   0   7  10   0  1  0
248  69   0   9  10   0  1  0
249  69   0   7  10   0  1  0
250  69   0   9  10   0  1  0
251  69   0   7  10   0  1  0
252  69   0   9  10   0  1  0
253  69   0   7  10   0  1  0
254  69   0   9  10   0  1  0
255  69   0   7  10   0  1  0
256  69   0   9  10   0  1  0
257  69   0   7  10   0  1  0
258  69   0   9  10   0  1  0
259  69   0   7  10   0  1  0
260  69   0   9  10   0  1  0
261  69   0   7  10   0  1  0
262  69   0   9  10   0  1  0
263  69   0   7  10   0  1  0
264  69   0   9  10   0  1  0
265  69   0   7  10   0  1  0
266  69   0   9  10   0  1  0
267  69   0   7  10   0  1  0
268  69   0   9  10   0  1  0
269  69   0   7  10   0  1  0
270  69   0   9  11   0  1  0

# Format of RF events:
# id ampl. mag_id phase_id time_shape_id center delay freqPPM phasePPM freq phase use
# ..   Hz      ..       ..            ..     us    us     ppm  rad/MHz   Hz   rad  ..
# Field 'use' is the initial of: 
#   excitation refocusing inversion saturation preparation other undefined
[RF]
1      125.954 1 2 0 4000 100 -3.35 0.0841947 0 0 s
2      329.152 3 4 0 1500 100 0 0 -1333.33 14.1372 e
3      658.303 3 4 0 1500 100 0 0 -1333.33 12.5664 r
4      329.152 3 4 0 1500 100 0 0 0 1.5708 e
5      658.303 3 4 0 1500 100 0 0 0 -0 r
6      329.152 3 4 0 1500 100 0 0 1333.33 -10.9956 e
7      658.303 3 4 0 1500 100 0 0 1333.33 -12.5664 r

# Format of arbitrary gradients:
#   time_shape_id of 0 means default timing (stepping with grad_raster starting at 1/2 of grad_raster)
# id amplitude first last amp_shape_id time_shape_id delay
# ..      Hz/m  Hz/m Hz/m        ..         ..          us
[GRADIENTS]
4  1.60105e+06            0            0 5 6 10
8      -111607            0      -111607 7 8 660
10      -111607      -111607      -111607 9 10 0
11      -111607      -111607            0 11 12 0

# Format of trapezoid gradients:
# id amplitude rise flat fall delay
# ..      Hz/m   us   us   us    us
[TRAP]
 1  1.61551e+06 220 5970 220 8110
 2       666667  90 3000  90  10
 3  1.49203e+06 200 17910 200   0
 5 -1.33333e+06 190    0 190   0
 6       365260  50  280  50   0
 7       888889 120  450 120   0
 9      -888889 120  450 120   0

# Format of ADC events:
# id num dwell delay freqPPM phasePPM freq phase phase_id
# ..  ..    ns    us     ppm  rad/MHz   Hz   rad       ..
[ADC]
1 124 5000 35 0 0 0 0 0

# Format of extension lists:
# id type ref next_id
# next_id of 0 terminates the list
# Extension list is followed by extension specifications
[EXTENSIONS]
1 1 1 0

# Extension specification for digital output and input triggers:
# id type channel delay (us) duration (us)
extension TRIGGERS 1
1 1 1 0 100

# Sequence Shapes
[SHAPES]

shape_id 1
num_samples 8000
0.00019580412
0.000196641833
0.00019748292
0.000198327392
0.000199175263
0.000200026545
0.000200881251
0.000201739394
0.000202600987
0.000203466042
0.000204334572
0.000205206591
0.000206082111
0.000206961146
0.000207843708
0.000208729811
0.000209619468
0.000210512692
0.000211409497
0.000212309895
0.000213213901
0.000214121527
0.000215032787
0.000215947695
0.000216866265
0.000217788509
0.000218714441
0.000219644076
0.000220577426
0.000221514506
0.00022245533
0.000223399911
0.000224348263
0.000225300401
0.000226256338
0.000227216088
0.000228179666
0.000229147086
0.000230118361
0.000231093507
0.000232072537
0.000233055467
0.000234042309
0.000235033079
0.000236027792
0.000237026461
0.000238029102
0.000239035728
0.000240046356
0.000241060999
0.000242079672
0.000243102391
0.000244129169
0.000245160023
0.000246194967
0.000247234015
0.000248277184
0.000249324488
0.000250375943
0.000251431564
0.000252491365
0.000253555363
0.000254623573
0.000255696011
0.000256772691
0.000257853629
0.000258938842
0.000260028344
0.000261122151
0.00026222028
0.000263322746
0.000264429564
0.000265540752
0.000266656324
0.000267776297
0.000268900686
0.000270029509
0.000271162781
0.000272300519
0.000273442738
0.000274589455
0.000275740687
0.00027689645
0.00027805676
0.000279221635
0.00028039109
0.000281565143
0.00028274381
0.000283927107
0.000285115053
0.000286307663
0.000287504955
0.000288706945
0.000289913652
0.000291125091
0.00029234128
0.000293562236
0.000294787977
0.00029601852
0.000297253883
0.000298494082
0.000299739135
0.000300989061
0.000302243876
0.000303503598
0.000304768245
0.000306037836
0.000307312387
0.000308591916
0.000309876442
0.000311165983
0.000312460557
0.000313760182
0.000315064876
0.000316374657
0.000317689544
0.000319009556
0.00032033471
0.000321665026
0.000323000521
0.000324341215
0.000325687126
0.000327038273
0.000328394674
0.00032975635
0.000331123318
0.000332495598
0.000333873208
0.000335256168
0.000336644498
0.000338038215
0.000339437341
0.000340841893
0.000342251892
0.000343667357
0.000345088308
0.000346514763
0.000347946744
0.000349384269
0.000350827359
0.000352276034
0.000353730312
0.000355190216
0.000356655763
0.000358126976
0.000359603873
0.000361086475
0.000362574803
0.000364068877
0.000365568717
0.000367074344
0.000368585779
0.000370103042
0.000371626154
0.000373155136
0.000374690008
0.000376230792
0.000377777509
0.00037933018
0.000380888825
0.000382453466
0.000384024125
0.000385600823
0.00038718358
0.00038877242
0.000390367362
0.000391968429
0.000393575643
0.000395189025
0.000396808598
0.000398434382
0.0004000664
0.000401704674
0.000403349226
0.000405000079
0.000406657254
0.000408320775
0.000409990662
0.000411666939
0.000413349629
0.000415038753
0.000416734335
0.000418436398
0.000420144963
0.000421860055
0.000423581696
0.000425309908
0.000427044716
0.000428786143
0.000430534211
0.000432288944
0.000434050365
0.000435818499
0.000437593367
0.000439374995
0.000441163406
0.000442958623
0.000444760671
0.000446569573
0.000448385353
0.000450208036
0.000452037646
0.000453874206
0.000455717741
0.000457568276
0.000459425835
0.000461290443
0.000463162124
0.000465040902
0.000466926804
0.000468819852
0.000470720073
0.000472627492
0.000474542133
0.000476464022
0.000478393183
0.000480329643
0.000482273426
0.000484224559
0.000486183066
0.000488148974
0.000490122307
0.000492103093
0.000494091356
0.000496087122
0.000498090419
0.000500101271
0.000502119705
0.000504145747
0.000506179425
0.000508220763
0.000510269789
0.000512326529
0.00051439101
0.000516463259
0.000518543302
0.000520631167
0.00052272688
0.000524830469
0.000526941961
0.000529061383
0.000531188763
0.000533324127
0.000535467504
0.000537618921
0.000539778406
0.000541945986
0.00054412169
0.000546305545
0.00054849758
0.000550697822
0.0005529063
0.000555123042
0.000557348076
0.000559581432
0.000561823136
0.00056407322
0.00056633171
0.000568598635
0.000570874026
0.00057315791
0.000575450317
0.000577751276
0.000580060816
0.000582378966
0.000584705757
0.000587041217
0.000589385376
0.000591738265
0.000594099912
0.000596470347
0.000598849602
0.000601237705
0.000603634687
0.000606040578
0.000608455408
0.000610879209
0.00061331201
0.000615753842
0.000618204737
0.000620664724
0.000623133834
0.000625612099
0.00062809955
0.000630596218
0.000633102135
0.000635617331
0.000638141838
0.000640675687
0.000643218912
0.000645771542
0.00064833361
0.000650905149
0.000653486189
0.000656076764
0.000658676905
0.000661286645
0.000663906016
0.000666535051
0.000669173783
0.000671822244
0.000674480466
0.000677148484
0.00067982633
0.000682514037
0.000685211638
0.000687919167
0.000690636657
0.000693364142
0.000696101656
0.000698849231
0.000701606902
0.000704374703
0.000707152668
0.000709940831
0.000712739227
0.000715547888
0.000718366851
0.00072119615
0.000724035819
0.000726885893
0.000729746407
0.000732617395
0.000735498894
0.000738390938
0.000741293562
0.000744206802
0.000747130693
0.000750065271
0.000753010571
0.00075596663
0.000758933483
0.000761911167
0.000764899716
0.000767899169
0.00077090956
0.000773930927
0.000776963305
0.000780006733
0.000783061245
0.00078612688
0.000789203674
0.000792291665
0.000795390889
0.000798501384
0.000801623187
0.000804756336
0.000807900868
0.000811056822
0.000814224234
0.000817403144
0.000820593589
0.000823795607
0.000827009237
0.000830234516
0.000833471485
0.00083672018
0.000839980642
0.000843252908
0.000846537019
0.000849833012
0.000853140927
0.000856460804
0.000859792682
0.000863136601
0.000866492599
0.000869860718
0.000873240996
0.000876633474
0.000880038193
0.000883455191
0.000886884511
0.000890326191
0.000893780273
0.000897246798
0.000900725806
0.000904217338
0.000907721436
0.00091123814
0.000914767492
0.000918309533
0.000921864306
0.00092543185
0.00092901221
0.000932605425
0.000936211539
0.000939830593
0.00094346263
0.000947107692
0.000950765822
0.000954437062
0.000958121455
0.000961819044
0.000965529872
0.000969253982
0.000972991418
0.000976742222
0.000980506439
0.000984284112
0.000988075284
0.00099188
0.000995698303
0.000999530239
0.00100337585
0.00100723518
0.00101110828
0.00101499518
0.00101889594
0.0010228106
0.00102673921
0.0010306818
0.00103463843
0.00103860914
0.00104259397
0.00104659298
0.0010506062
0.00105463368
0.00105867548
0.00106273163
0.00106680218
0.00107088718
0.00107498667
0.00107910071
0.00108322933
0.00108737259
0.00109153053
0.0010957032
0.00109989065
0.00110409292
0.00110831006
0.00111254213
0.00111678916
0.00112105121
0.00112532832
0.00112962054
0.00113392793
0.00113825052
0.00114258838
0.00114694154
0.00115131005
0.00115569397
0.00116009335
0.00116450823
0.00116893866
0.0011733847
0.00117784638
0.00118232378
0.00118681692
0.00119132587
0.00119585067
0.00120039138
0.00120494804
0.00120952071
0.00121410943
0.00121871426
0.00122333525
0.00122797245
0.00123262591
0.00123729569
0.00124198183
0.00124668439
0.00125140342
0.00125613897
0.0012608911
0.00126565985
0.00127044528
0.00127524744
0.00128006639
0.00128490218
0.00128975485
0.00129462448
0.0012995111
0.00130441477
0.00130933555
0.00131427349
0.00131922865
0.00132420107
0.00132919082
0.00133419794
0.00133922249
0.00134426454
0.00134932412
0.00135440131
0.00135949614
0.00136460869
0.00136973899
0.00137488712
0.00138005312
0.00138523706
0.00139043898
0.00139565895
0.00140089702
0.00140615325
0.00141142769
0.00141672041
0.00142203145
0.00142736088
0.00143270875
0.00143807513
0.00144346006
0.00144886361
0.00145428584
0.0014597268
0.00146518656
0.00147066516
0.00147616267
0.00148167916
0.00148721467
0.00149276926
0.00149834301
0.00150393595
0.00150954817
0.00151517971
0.00152083063
0.00152650101
0.00153219088
0.00153790033
0.0015436294
0.00154937816
0.00155514667
0.00156093498
0.00156674318
0.0015725713
0.00157841942
0.00158428759
0.00159017589
0.00159608436
0.00160201308
0.00160796211
0.0016139315
0.00161992133
0.00162593165
0.00163196252
0.00163801402
0.0016440862
0.00165017913
0.00165629287
0.00166242749
0.00166858305
0.00167475961
0.00168095725
0.00168717601
0.00169341598
0.00169967721
0.00170595976
0.00171226372
0.00171858913
0.00172493607
0.0017313046
0.00173769478
0.00174410669
0.0017505404
0.00175699595
0.00176347344
0.00176997291
0.00177649444
0.0017830381
0.00178960395
0.00179619206
0.0018028025
0.00180943533
0.00181609063
0.00182276846
0.0018294689
0.001836192
0.00184293784
0.0018497065
0.00185649802
0.0018633125
0.00187014999
0.00187701057
0.00188389431
0.00189080127
0.00189773153
0.00190468516
0.00191166223
0.00191866281
0.00192568696
0.00193273477
0.0019398063
0.00194690163
0.00195402082
0.00196116396
0.0019683311
0.00197552233
0.00198273771
0.00198997733
0.00199724124
0.00200452953
0.00201184227
0.00201917953
0.00202654138
0.00203392791
0.00204133918
0.00204877527
0.00205623625
0.0020637222
0.00207123319
0.00207876929
0.00208633059
0.00209391716
0.00210152907
0.0021091664
0.00211682923
0.00212451763
0.00213223168
0.00213997145
0.00214773702
0.00215552847
0.00216334588
0.00217118932
0.00217905887
0.00218695462
0.00219487662
0.00220282498
0.00221079975
0.00221880103
0.00222682889
0.00223488341
0.00224296466
0.00225107274
0.00225920771
0.00226736966
0.00227555867
0.00228377482
0.00229201819
0.00230028885
0.0023085869
0.0023169124
0.00232526545
0.00233364612
0.0023420545
0.00235049066
0.00235895469
0.00236744667
0.00237596669
0.00238451482
0.00239309116
0.00240169577
0.00241032875
0.00241899018
0.00242768015
0.00243639872
0.002445146
0.00245392207
0.002462727
0.00247156089
0.00248042382
0.00248931588
0.00249823714
0.0025071877
0.00251616764
0.00252517705
0.00253421601
0.00254328461
0.00255238294
0.00256151108
0.00257066913
0.00257985716
0.00258907527
0.00259832354
0.00260760206
0.00261691092
0.00262625021
0.00263562002
0.00264502043
0.00265445153
0.00266391342
0.00267340619
0.00268292991
0.00269248469
0.00270207061
0.00271168777
0.00272133625
0.00273101614
0.00274072754
0.00275047054
0.00276024522
0.00277005169
0.00277989003
0.00278976033
0.00279966269
0.0028095972
0.00281956395
0.00282956303
0.00283959455
0.00284965858
0.00285975523
0.0028698846
0.00288004676
0.00289024183
0.00290046988
0.00291073103
0.00292102536
0.00293135296
0.00294171394
0.00295210839
0.00296253641
0.00297299809
0.00298349352
0.00299402281
0.00300458606
0.00301518335
0.00302581479
0.00303648047
0.0030471805
0.00305791497
0.00306868397
0.00307948762
0.003090326
0.00310119921
0.00311210736
0.00312305055
0.00313402887
0.00314504242
0.0031560913
0.00316717563
0.00317829548
0.00318945098
0.00320064221
0.00321186928
0.00322313229
0.00323443134
0.00324576654
0.00325713799
0.00326854578
0.00327999003
0.00329147084
0.00330298831
0.00331454254
0.00332613363
0.0033377617
0.00334942684
0.00336112916
0.00337286877
0.00338464577
0.00339646027
0.00340831236
0.00342020216
0.00343212978
0.00344409531
0.00345609888
0.00346814057
0.00348022051
0.00349233879
0.00350449552
0.00351669082
0.0035289248
0.00354119755
0.00355350919
0.00356585982
0.00357824956
0.00359067852
0.0036031468
0.00361565452
0.00362820178
0.0036407887
0.00365341538
0.00366608195
0.0036787885
0.00369153514
0.003704322
0.00371714919
0.00373001681
0.00374292497
0.0037558738
0.0037688634
0.00378189389
0.00379496538
0.00380807798
0.00382123181
0.00383442698
0.00384766361
0.00386094181
0.0038742617
0.00388762339
0.003901027
0.00391447264
0.00392796043
0.00394149049
0.00395506292
0.00396867786
0.00398233542
0.00399603571
0.00400977885
0.00402356496
0.00403739416
0.00405126657
0.0040651823
0.00407914148
0.00409314422
0.00410719064
0.00412128087
0.00413541502
0.00414959321
0.00416381557
0.00417808222
0.00419239327
0.00420674885
0.00422114908
0.00423559408
0.00425008397
0.00426461889
0.00427919894
0.00429382425
0.00430849495
0.00432321117
0.00433797301
0.00435278062
0.0043676341
0.0043825336
0.00439747922
0.00441247111
0.00442750938
0.00444259415
0.00445772557
0.00447290374
0.00448812881
0.00450340089
0.00451872012
0.00453408661
0.00454950051
0.00456496193
0.004580471
0.00459602787
0.00461163264
0.00462728546
0.00464298645
0.00465873574
0.00467453346
0.00469037975
0.00470627473
0.00472221853
0.00473821129
0.00475425314
0.0047703442
0.00478648462
0.00480267452
0.00481891404
0.00483520331
0.00485154246
0.00486793162
0.00488437094
0.00490086054
0.00491740056
0.00493399114
0.0049506324
0.00496732449
0.00498406754
0.00500086168
0.00501770706
0.0050346038
0.00505155205
0.00506855194
0.00508560362
0.00510270721
0.00511986286
0.0051370707
0.00515433087
0.00517164352
0.00518900878
0.00520642678
0.00522389768
0.00524142161
0.00525899871
0.00527662912
0.00529431299
0.00531205045
0.00532984164
0.00534768671
0.0053655858
0.00538353905
0.00540154661
0.00541960862
0.00543772522
0.00545589655
0.00547412276
0.005492404
0.00551074041
0.00552913212
0.0055475793
0.00556608208
0.00558464061
0.00560325504
0.00562192551
0.00564065217
0.00565943517
0.00567827465
0.00569717077
0.00571612366
0.00573513348
0.00575420038
0.0057733245
0.005792506
0.00581174503
0.00583104173
0.00585039625
0.00586980875
0.00588927938
0.00590880828
0.00592839562
0.00594804153
0.00596774618
0.00598750971
0.00600733228
0.00602721404
0.00604715515
0.00606715576
0.00608721601
0.00610733608
0.0061275161
0.00614775624
0.00616805665
0.00618841749
0.00620883892
0.00622932108
0.00624986414
0.00627046825
0.00629113357
0.00631186026
0.00633264847
0.00635349837
0.00637441011
0.00639538385
0.00641641975
0.00643751797
0.00645867867
0.006479902
0.00650118814
0.00652253724
0.00654394946
0.00656542497
0.00658696391
0.00660856647
0.00663023279
0.00665196305
0.0066737574
0.00669561601
0.00671753905
0.00673952666
0.00676157903
0.00678369632
0.00680587868
0.0068281263
0.00685043932
0.00687281792
0.00689526226
0.00691777252
0.00694034885
0.00696299143
0.00698570042
0.00700847599
0.00703131831
0.00705422755
0.00707720387
0.00710024745
0.00712335846
0.00714653706
0.00716978343
0.00719309774
0.00721648015
0.00723993084
0.00726344999
0.00728703776
0.00731069432
0.00733441985
0.00735821453
0.00738207852
0.00740601199
0.00743001513
0.00745408811
0.0074782311
0.00750244428
0.00752672782
0.00755108189
0.00757550669
0.00760000237
0.00762456912
0.00764920712
0.00767391654
0.00769869756
0.00772355036
0.00774847511
0.00777347201
0.00779854121
0.00782368292
0.0078488973
0.00787418453
0.0078995448
0.00792497828
0.00795048517
0.00797606563
0.00800171986
0.00802744803
0.00805325033
0.00807912694
0.00810507804
0.00813110382
0.00815720446
0.00818338015
0.00820963107
0.00823595741
0.00826235934
0.00828883707
0.00831539076
0.00834202062
0.00836872683
0.00839550957
0.00842236903
0.0084493054
0.00847631888
0.00850340963
0.00853057787
0.00855782377
0.00858514753
0.00861254933
0.00864002937
0.00866758784
0.00869522492
0.00872294082
0.00875073572
0.00877860981
0.00880656329
0.00883459635
0.00886270918
0.00889090198
0.00891917494
0.00894752825
0.00897596212
0.00900447673
0.00903307228
0.00906174897
0.009090507
0.00911934655
0.00914826783
0.00917727103
0.00920635636
0.009235524
0.00926477417
0.00929410705
0.00932352285
0.00935302176
0.00938260399
0.00941226974
0.0094420192
0.00947185258
0.00950177008
0.00953177189
0.00956185824
0.0095920293
0.0096222853
0.00965262643
0.00968305289
0.00971356489
0.00974416263
0.00977484632
0.00980561616
0.00983647236
0.00986741513
0.00989844466
0.00992956117
0.00996076487
0.00999205595
0.0100234346
0.0100549011
0.0100864556
0.0101180984
0.0101498295
0.0101816493
0.010213558
0.0102455557
0.0102776427
0.0103098191
0.0103420853
0.0103744414
0.0104068876
0.0104394241
0.0104720512
0.010504769
0.0105375778
0.0105704778
0.0106034691
0.0106365521
0.0106697269
0.0107029938
0.0107363529
0.0107698045
0.0108033488
0.010836986
0.0108707164
0.01090454
0.0109384573
0.0109724683
0.0110065733
0.0110407726
0.0110750662
0.0111094546
0.0111439378
0.0111785161
0.0112131898
0.0112479589
0.0112828239
0.0113177848
0.011352842
0.0113879956
0.0114232458
0.0114585929
0.0114940371
0.0115295787
0.0115652178
0.0116009547
0.0116367896
0.0116727227
0.0117087543
0.0117448845
0.0117811137
0.011817442
0.0118538697
0.011890397
0.0119270241
0.0119637512
0.0120005786
0.0120375066
0.0120745353
0.012111665
0.0121488958
0.0121862281
0.0122236621
0.012261198
0.012298836
0.0123365764
0.0123744194
0.0124123652
0.0124504141
0.0124885663
0.012526822
0.0125651815
0.012603645
0.0126422127
0.012680885
0.0127196619
0.0127585438
0.0127975309
0.0128366235
0.0128758217
0.0129151258
0.012954536
0.0129940527
0.0130336759
0.0130734061
0.0131132433
0.0131531879
0.0131932401
0.0132334001
0.0132736683
0.0133140447
0.0133545297
0.0133951234
0.0134358263
0.0134766384
0.0135175601
0.0135585915
0.013599733
0.0136409848
0.013682347
0.0137238201
0.0137654041
0.0138070995
0.0138489063
0.0138908249
0.0139328555
0.0139749983
0.0140172537
0.0140596218
0.0141021029
0.0141446973
0.0141874052
0.0142302268
0.0142731625
0.0143162124
0.0143593768
0.014402656
0.0144460503
0.0144895598
0.0145331848
0.0145769256
0.0146207824
0.0146647556
0.0147088453
0.0147530518
0.0147973753
0.0148418162
0.0148863747
0.014931051
0.0149758453
0.0150207581
0.0150657894
0.0151109396
0.015156209
0.0152015977
0.0152471061
0.0152927344
0.0153384829
0.0153843518
0.0154303413
0.0154764519
0.0155226837
0.0155690369
0.0156155119
0.015662109
0.0157088282
0.0157556701
0.0158026347
0.0158497224
0.0158969335
0.0159442681
0.0159917267
0.0160393093
0.0160870164
0.0161348481
0.0161828048
0.0162308867
0.0162790941
0.0163274272
0.0163758864
0.0164244718
0.0164731838
0.0165220227
0.0165709886
0.0166200819
0.0166693029
0.0167186518
0.0167681288
0.0168177344
0.0168674687
0.016917332
0.0169673246
0.0170174468
0.0170676988
0.0171180809
0.0171685934
0.0172192366
0.0172700107
0.0173209161
0.017371953
0.0174231216
0.0174744223
0.0175258554
0.017577421
0.0176291196
0.0176809513
0.0177329166
0.0177850155
0.0178372485
0.0178896158
0.0179421176
0.0179947544
0.0180475263
0.0181004336
0.0181534766
0.0182066557
0.018259971
0.0183134229
0.0183670117
0.0184207376
0.018474601
0.0185286021
0.0185827412
0.0186370185
0.0186914345
0.0187459893
0.0188006833
0.0188555167
0.0189104899
0.0189656031
0.0190208566
0.0190762507
0.0191317858
0.019187462
0.0192432797
0.0192992391
0.0193553407
0.0194115846
0.0194679711
0.0195245006
0.0195811733
0.0196379896
0.0196949497
0.019752054
0.0198093026
0.019866696
0.0199242344
0.0199819181
0.0200397474
0.0200977226
0.020155844
0.0202141119
0.0202725267
0.0203310885
0.0203897977
0.0204486546
0.0205076596
0.0205668128
0.0206261147
0.0206855654
0.0207451654
0.0208049148
0.0208648141
0.0209248635
0.0209850633
0.0210454139
0.0211059155
0.0211665684
0.0212273729
0.0212883294
0.0213494381
0.0214106994
0.0214721136
0.0215336809
0.0215954017
0.0216572763
0.021719305
0.0217814881
0.0218438259
0.0219063188
0.0219689669
0.0220317707
0.0220947305
0.0221578465
0.0222211191
0.0222845486
0.0223481353
0.0224118795
0.0224757815
0.0225398417
0.0226040603
0.0226684376
0.0227329741
0.0227976699
0.0228625255
0.0229275411
0.022992717
0.0230580536
0.0231235512
0.0231892101
0.0232550305
0.0233210129
0.0233871576
0.0234534648
0.0235199349
0.0235865682
0.023653365
0.0237203257
0.0237874505
0.0238547398
0.023922194
0.0239898132
0.0240575979
0.0241255484
0.024193665
0.024261948
0.0243303978
0.0243990146
0.0244677988
0.0245367507
0.0246058707
0.024675159
0.0247446161
0.0248142421
0.0248840375
0.0249540026
0.0250241377
0.0250944431
0.0251649191
0.0252355662
0.0253063846
0.0253773746
0.0254485366
0.0255198708
0.0255913778
0.0256630577
0.0257349109
0.0258069377
0.0258791385
0.0259515135
0.0260240632
0.0260967879
0.0261696878
0.0262427634
0.0263160149
0.0263894428
0.0264630472
0.0265368287
0.0266107874
0.0266849238
0.0267592381
0.0268337307
0.026908402
0.0269832523
0.0270582819
0.0271334912
0.0272088804
0.02728445
