# Pulseq sequence file
# Created by MATLAB mr toolbox

[VERSION]
major 1
minor 5
revision 1

[DEFINITIONS]
AdcRasterTime 1e-07 
BlockDurationRaster 1e-05 
FOV 0.24 0.24 0.006 
GradientRasterTime 1e-05 
Name gre_rad 
RadiofrequencyRasterTime 1e-06 
RequiredExtensions ROTATIONS 
TotalDuration 0.8512 

# Format of blocks:
# NUM DUR RF  GX  GY  GZ  ADC  EXT
[BLOCKS]
  1 131   1   2   0   1  0  1
  2 189   0   3   0   4  0  1
  3 131   2   2   0   1  0  2
  4 189   0   3   0   4  0  2
  5 131   3   2   0   1  0  3
  6 189   0   3   0   4  0  3
  7 131   4   2   0   1  0  4
  8 189   0   3   0   4  0  4
  9 131   5   2   0   1  0  5
 10 189   0   3   0   4  0  5
 11 131   6   2   0   1  0  6
 12 189   0   3   0   4  0  6
 13 131   7   2   0   1  0  7
 14 189   0   3   0   4  0  7
 15 131   8   2   0   1  0  8
 16 189   0   3   0   4  0  8
 17 131   9   2   0   1  0  9
 18 189   0   3   0   4  0  9
 19 131  10   2   0   1  0 10
 20 189   0   3   0   4  0 10
 21 131   6   2   0   1  0 11
 22 189   0   3   0   4  1 11
 23 131  11   2   0   1  0 12
 24 189   0   3   0   4  2 12
 25 131  12   2   0   1  0 13
 26 189   0   3   0   4  3 13
 27 131  13   2   0   1  0 14
 28 189   0   3   0   4  4 14
 29 131  14   2   0   1  0 15
 30 189   0   3   0   4  5 15
 31 131   1   2   0   1  0 16
 32 189   0   3   0   4  6 16
 33 131  15   2   0   1  0 17
 34 189   0   3   0   4  7 17
 35 131  16   2   0   1  0 18
 36 189   0   3   0   4  8 18
 37 131  13   2   0   1  0 19
 38 189   0   3   0   4  4 19
 39 131  17   2   0   1  0 20
 40 189   0   3   0   4  9 20
 41 131   5   2   0   1  0 21
 42 189   0   3   0   4 10 21
 43 131  18   2   0   1  0 22
 44 189   0   3   0   4 11 22
 45 131  19   2   0   1  0 23
 46 189   0   3   0   4 12 23
 47 131   9   2   0   1  0 24
 48 189   0   3   0   4 13 24
 49 131  20   2   0   1  0 25
 50 189   0   3   0   4 14 25
 51 131  10   2   0   1  0 26
 52 189   0   3   0   4 15 26
 53 131  18   2   0   1  0 27
 54 189   0   3   0   4 11 27
 55 131  21   2   0   1  0 28
 56 189   0   3   0   4 16 28
 57 131   4   2   0   1  0 29
 58 189   0   3   0   4 17 29
 59 131  22   2   0   1  0 30
 60 189   0   3   0   4 18 30
 61 131  14   2   0   1  0 31
 62 189   0   3   0   4  5 31
 63 131  15   2   0   1  0 32
 64 189   0   3   0   4  7 32
 65 131  23   2   0   1  0 33
 66 189   0   3   0   4 19 33
 67 131   2   2   0   1  0 34
 68 189   0   3   0   4 20 34
 69 131  22   2   0   1  0 35
 70 189   0   3   0   4 18 35
 71 131  17   2   0   1  0 36
 72 189   0   3   0   4  9 36
 73 131  11   2   0   1  0 37
 74 189   0   3   0   4  2 37
 75 131  24   2   0   1  0 38
 76 189   0   3   0   4 21 38
 77 131   7   2   0   1  0 39
 78 189   0   3   0   4 22 39
 79 131  20   2   0   1  0 40
 80 189   0   3   0   4 14 40
 81 131  20   2   0   1  0 41
 82 189   0   3   0   4 14 41
 83 131   7   2   0   1  0 42
 84 189   0   3   0   4 22 42
 85 131  24   2   0   1  0 43
 86 189   0   3   0   4 21 43
 87 131  11   2   0   1  0 44
 88 189   0   3   0   4  2 44
 89 131  17   2   0   1  0 45
 90 189   0   3   0   4  9 45
 91 131  22   2   0   1  0 46
 92 189   0   3   0   4 18 46
 93 131   2   2   0   1  0 47
 94 189   0   3   0   4 20 47
 95 131  23   2   0   1  0 48
 96 189   0   3   0   4 19 48
 97 131  15   2   0   1  0 49
 98 189   0   3   0   4  7 49
 99 131  14   2   0   1  0 50
100 189   0   3   0   4  5 50
101 131  22   2   0   1  0 51
102 189   0   3   0   4 18 51
103 131   4   2   0   1  0 52
104 189   0   3   0   4 17 52
105 131  21   2   0   1  0 53
106 189   0   3   0   4 16 53
107 131  18   2   0   1  0 54
108 189   0   3   0   4 11 54
109 131  10   2   0   1  0 55
110 189   0   3   0   4 15 55
111 131  20   2   0   1  0 56
112 189   0   3   0   4 14 56
113 131   9   2   0   1  0 57
114 189   0   3   0   4 13 57
115 131  19   2   0   1  0 58
116 189   0   3   0   4 12 58
117 131  18   2   0   1  0 59
118 189   0   3   0   4 11 59
119 131   5   2   0   1  0 60
120 189   0   3   0   4 10 60
121 131  17   2   0   1  0 61
122 189   0   3   0   4  9 61
123 131  13   2   0   1  0 62
124 189   0   3   0   4  4 62
125 131  16   2   0   1  0 63
126 189   0   3   0   4  8 63
127 131  15   2   0   1  0 64
128 189   0   3   0   4  7 64
129 131   1   2   0   1  0 65
130 189   0   3   0   4  6 65
131 131  14   2   0   1  0 66
132 189   0   3   0   4  5 66
133 131  13   2   0   1  0 67
134 189   0   3   0   4  4 67
135 131  12   2   0   1  0 68
136 189   0   3   0   4  3 68
137 131  11   2   0   1  0 69
138 189   0   3   0   4  2 69
139 131   6   2   0   1  0 70
140 189   0   3   0   4  1 70
141 131  10   2   0   1  0 71
142 189   0   3   0   4 15 71
143 131   9   2   0   1  0 72
144 189   0   3   0   4 13 72
145 131   8   2   0   1  0 73
146 189   0   3   0   4 23 73
147 131   7   2   0   1  0 74
148 189   0   3   0   4 22 74
149 131   6   2   0   1  0 75
150 189   0   3   0   4  1 75
151 131   5   2   0   1  0 76
152 189   0   3   0   4 10 76
153 131   4   2   0   1  0 77
154 189   0   3   0   4 17 77
155 131   3   2   0   1  0 78
156 189   0   3   0   4 24 78
157 131   2   2   0   1  0 79
158 189   0   3   0   4 20 79
159 131   1   2   0   1  0 80
160 189   0   3   0   4  6 80
161 131   1   2   0   1  0 81
162 189   0   3   0   4  6 81
163 131   2   2   0   1  0 82
164 189   0   3   0   4 20 82
165 131   3   2   0   1  0 83
166 189   0   3   0   4 24 83
167 131   4   2   0   1  0 84
168 189   0   3   0   4 17 84
169 131   5   2   0   1  0 85
170 189   0   3   0   4 10 85
171 131   6   2   0   1  0 86
172 189   0   3   0   4  1 86
173 131   7   2   0   1  0 87
174 189   0   3   0   4 22 87
175 131   8   2   0   1  0 88
176 189   0   3   0   4 23 88
177 131   9   2   0   1  0 89
178 189   0   3   0   4 13 89
179 131  10   2   0   1  0 90
180 189   0   3   0   4 15 90
181 131   6   2   0   1  0 91
182 189   0   3   0   4  1 91
183 131  11   2   0   1  0 92
184 189   0   3   0   4  2 92
185 131  12   2   0   1  0 93
186 189   0   3   0   4  3 93
187 131  13   2   0   1  0 94
188 189   0   3   0   4  4 94
189 131  14   2   0   1  0 95
190 189   0   3   0   4  5 95
191 131   1   2   0   1  0 96
192 189   0   3   0   4  6 96
193 131  15   2   0   1  0 97
194 189   0   3   0   4  7 97
195 131  16   2   0   1  0 98
196 189   0   3   0   4  8 98
197 131  13   2   0   1  0 99
198 189   0   3   0   4  4 99
199 131  17   2   0   1  0 100
200 189   0   3   0   4  9 100
201 131   5   2   0   1  0 101
202 189   0   3   0   4 10 101
203 131  18   2   0   1  0 102
204 189   0   3   0   4 11 102
205 131  19   2   0   1  0 103
206 189   0   3   0   4 12 103
207 131   9   2   0   1  0 104
208 189   0   3   0   4 13 104
209 131  20   2   0   1  0 105
210 189   0   3   0   4 14 105
211 131  10   2   0   1  0 106
212 189   0   3   0   4 15 106
213 131  18   2   0   1  0 107
214 189   0   3   0   4 11 107
215 131  21   2   0   1  0 108
216 189   0   3   0   4 16 108
217 131   4   2   0   1  0 109
218 189   0   3   0   4 17 109
219 131  22   2   0   1  0 110
220 189   0   3   0   4 18 110
221 131  14   2   0   1  0 111
222 189   0   3   0   4  5 111
223 131  15   2   0   1  0 112
224 189   0   3   0   4  7 112
225 131  23   2   0   1  0 113
226 189   0   3   0   4 19 113
227 131   2   2   0   1  0 114
228 189   0   3   0   4 20 114
229 131  22   2   0   1  0 115
230 189   0   3   0   4 18 115
231 131  17   2   0   1  0 116
232 189   0   3   0   4  9 116
233 131  11   2   0   1  0 117
234 189   0   3   0   4  2 117
235 131  24   2   0   1  0 118
236 189   0   3   0   4 21 118
237 131   7   2   0   1  0 119
238 189   0   3   0   4 22 119
239 131  20   2   0   1  0 120
240 189   0   3   0   4 14 120
241 131  20   2   0   1  0 121
242 189   0   3   0   4 14 121
243 131   7   2   0   1  0 122
244 189   0   3   0   4 22 122
245 131  24   2   0   1  0 123
246 189   0   3   0   4 21 123
247 131  11   2   0   1  0 124
248 189   0   3   0   4  2 124
249 131  17   2   0   1  0 125
250 189   0   3   0   4  9 125
251 131  22   2   0   1  0 126
252 189   0   3   0   4 18 126
253 131   2   2   0   1  0 127
254 189   0   3   0   4 20 127
255 131  23   2   0   1  0 128
256 189   0   3   0   4 19 128
257 131  15   2   0   1  0 129
258 189   0   3   0   4  7 129
259 131  14   2   0   1  0 130
260 189   0   3   0   4  5 130
261 131  22   2   0   1  0 131
262 189   0   3   0   4 18 131
263 131   4   2   0   1  0 132
264 189   0   3   0   4 17 132
265 131  21   2   0   1  0 133
266 189   0   3   0   4 16 133
267 131  18   2   0   1  0 134
268 189   0   3   0   4 11 134
269 131  10   2   0   1  0 135
270 189   0   3   0   4 15 135
271 131  20   2   0   1  0 136
272 189   0   3   0   4 14 136
273 131   9   2   0   1  0 137
274 189   0   3   0   4 13 137
275 131  19   2   0   1  0 138
276 189   0   3   0   4 12 138
277 131  18   2   0   1  0 139
278 189   0   3   0   4 11 139
279 131   5   2   0   1  0 140
280 189   0   3   0   4 10 140
281 131  17   2   0   1  0 141
282 189   0   3   0   4  9 141
283 131  13   2   0   1  0 142
284 189   0   3   0   4  4 142
285 131  16   2   0   1  0 143
286 189   0   3   0   4  8 143
287 131  15   2   0   1  0 144
288 189   0   3   0   4  7 144
289 131   1   2   0   1  0 145
290 189   0   3   0   4  6 145
291 131  14   2   0   1  0 146
292 189   0   3   0   4  5 146
293 131  13   2   0   1  0 147
294 189   0   3   0   4  4 147
295 131  12   2   0   1  0 148
296 189   0   3   0   4  3 148
297 131  11   2   0   1  0 149
298 189   0   3   0   4  2 149
299 131   6   2   0   1  0 150
300 189   0   3   0   4  1 150
301 131  10   2   0   1  0 151
302 189   0   3   0   4 15 151
303 131   9   2   0   1  0 152
304 189   0   3   0   4 13 152
305 131   8   2   0   1  0 153
306 189   0   3   0   4 23 153
307 131   7   2   0   1  0 154
308 189   0   3   0   4 22 154
309 131   6   2   0   1  0 155
310 189   0   3   0   4  1 155
311 131   5   2   0   1  0 156
312 189   0   3   0   4 10 156
313 131   4   2   0   1  0 157
314 189   0   3   0   4 17 157
315 131   3   2   0   1  0 158
316 189   0   3   0   4 24 158
317 131   2   2   0   1  0 159
[RF]
1      85.1853 1 2 0 200 170 0 0 0 0 e
2      85.1853 1 2 0 200 170 0 0 0 2.04204 e
3      85.1853 1 2 0 200 170 0 0 0 6.12611 e
4      85.1853 1 2 0 200 170 0 0 0 5.96903 e
5      85.1853 1 2 0 200 170 0 0 0 1.5708 e
6      85.1853 1 2 0 200 170 0 0 0 5.49779 e
7      85.1853 1 2 0 200 170 0 0 0 5.18363 e
8      85.1853 1 2 0 200 170 0 0 0 0.628319 e
9      85.1853 1 2 0 200 170 0 0 0 4.39823 e
10      85.1853 1 2 0 200 170 0 0 0 3.92699 e
11      85.1853 1 2 0 200 170 0 0 0 2.82743 e
12      85.1853 1 2 0 200 170 0 0 0 2.19911 e
13      85.1853 1 2 0 200 170 0 0 0 3.61283 e
14      85.1853 1 2 0 200 170 0 0 0 0.785398 e
15      85.1853 1 2 0 200 170 0 0 0 1.25664 e
16      85.1853 1 2 0 200 170 0 0 0 4.55531 e
17      85.1853 1 2 0 200 170 0 0 0 4.71239 e
18      85.1853 1 2 0 200 170 0 0 0 0.471239 e
19      85.1853 1 2 0 200 170 0 0 0 1.41372 e
20      85.1853 1 2 0 200 170 0 0 0 3.14159 e
21      85.1853 1 2 0 200 170 0 0 0 5.34071 e
22      85.1853 1 2 0 200 170 0 0 0 2.35619 e
23      85.1853 1 2 0 200 170 0 0 0 3.76991 e
24      85.1853 1 2 0 200 170 0 0 0 2.98451 e

# Format of arbitrary gradients:
#   time_shape_id of 0 means default timing (stepping with grad_raster starting at 1/2 of grad_raster)
# id amplitude first last amp_shape_id time_shape_id delay
# ..      Hz/m  Hz/m Hz/m        ..         ..          us
[GRADIENTS]
1  1.07955e+06            0            0 3 4 0

# Format of trapezoid gradients:
# id amplitude rise flat fall delay
# ..      Hz/m   us   us   us    us
[TRAP]
 2 -1.18707e+06 240  240 240 590
 3       833333 170 1550 170   0
 4       684524 140    0 140 1370

# Format of ADC events:
# id num dwell delay freqPPM phasePPM freq phase phase_id
# ..  ..    ns    us     ppm  rad/MHz   Hz   rad       ..
[ADC]
1 480 2500 170 0 0 0 5.49779 0
2 480 2500 170 0 0 0 2.82743 0
3 480 2500 170 0 0 0 2.19911 0
4 480 2500 170 0 0 0 3.61283 0
5 480 2500 170 0 0 0 0.785398 0
6 480 2500 170 0 0 0 0 0
7 480 2500 170 0 0 0 1.25664 0
8 480 2500 170 0 0 0 4.55531 0
9 480 2500 170 0 0 0 4.71239 0
10 480 2500 170 0 0 0 1.5708 0
11 480 2500 170 0 0 0 0.471239 0
12 480 2500 170 0 0 0 1.41372 0
13 480 2500 170 0 0 0 4.39823 0
14 480 2500 170 0 0 0 3.14159 0
15 480 2500 170 0 0 0 3.92699 0
16 480 2500 170 0 0 0 5.34071 0
17 480 2500 170 0 0 0 5.96903 0
18 480 2500 170 0 0 0 2.35619 0
19 480 2500 170 0 0 0 3.76991 0
20 480 2500 170 0 0 0 2.04204 0
21 480 2500 170 0 0 0 2.98451 0
22 480 2500 170 0 0 0 5.18363 0
23 480 2500 170 0 0 0 0.628319 0
24 480 2500 170 0 0 0 6.12611 0

# Format of extension lists:
# id type ref next_id
# next_id of 0 terminates the list
# Extension list is followed by extension specifications
[EXTENSIONS]
1 1 1 0
2 1 2 0
3 1 3 0
4 1 4 0
5 1 5 0
6 1 6 0
7 1 7 0
8 1 8 0
9 1 9 0
10 1 10 0
11 1 11 0
12 1 12 0
13 1 13 0
14 1 14 0
15 1 15 0
16 1 16 0
17 1 17 0
18 1 18 0
19 1 19 0
20 1 20 0
21 1 21 0
22 1 22 0
23 1 23 0
24 1 24 0
25 1 25 0
26 1 26 0
27 1 27 0
28 1 28 0
29 1 29 0
30 1 30 0
31 1 31 0
32 1 32 0
33 1 33 0
34 1 34 0
35 1 35 0
36 1 36 0
37 1 37 0
38 1 38 0
39 1 39 0
40 1 40 0
41 1 41 0
42 1 42 0
43 1 43 0
44 1 44 0
45 1 45 0
46 1 46 0
47 1 47 0
48 1 48 0
49 1 49 0
50 1 50 0
51 1 51 0
52 1 52 0
53 1 53 0
54 1 54 0
55 1 55 0
56 1 56 0
57 1 57 0
58 1 58 0
59 1 59 0
60 1 60 0
61 1 61 0
62 1 62 0
63 1 63 0
64 1 64 0
65 1 65 0
66 1 66 0
67 1 67 0
68 1 68 0
69 1 69 0
70 1 70 0
71 1 71 0
72 1 72 0
73 1 73 0
74 1 74 0
75 1 75 0
76 1 76 0
77 1 77 0
78 1 78 0
79 1 79 0
80 1 80 0
81 1 81 0
82 1 82 0
83 1 83 0
84 1 84 0
85 1 85 0
86 1 86 0
87 1 87 0
88 1 88 0
89 1 89 0
90 1 90 0
91 1 91 0
92 1 92 0
93 1 93 0
94 1 94 0
95 1 95 0
96 1 96 0
97 1 97 0
98 1 98 0
99 1 99 0
100 1 100 0
101 1 101 0
102 1 102 0
103 1 103 0
104 1 104 0
105 1 105 0
106 1 106 0
107 1 107 0
108 1 108 0
109 1 109 0
110 1 110 0
111 1 111 0
112 1 112 0
113 1 113 0
114 1 114 0
115 1 115 0
116 1 116 0
117 1 117 0
118 1 118 0
119 1 119 0
120 1 120 0
121 1 121 0
122 1 122 0
123 1 123 0
124 1 124 0
125 1 125 0
126 1 126 0
127 1 127 0
128 1 128 0
129 1 129 0
130 1 130 0
131 1 131 0
132 1 132 0
133 1 133 0
134 1 134 0
135 1 135 0
136 1 136 0
137 1 137 0
138 1 138 0
139 1 139 0
140 1 140 0
141 1 141 0
142 1 142 0
143 1 143 0
144 1 144 0
145 1 145 0
146 1 146 0
147 1 147 0
148 1 148 0
149 1 149 0
150 1 150 0
151 1 151 0
152 1 152 0
153 1 153 0
154 1 154 0
155 1 155 0
156 1 156 0
157 1 157 0
158 1 158 0
159 1 159 0
160 1 160 0
161 1 161 0
162 1 162 0
163 1 163 0
164 1 164 0
165 1 165 0
166 1 166 0
167 1 167 0
168 1 168 0
169 1 169 0
170 1 170 0
171 1 171 0
172 1 172 0
173 1 173 0
174 1 174 0
175 1 175 0
176 1 176 0
177 1 177 0
178 1 178 0
179 1 179 0
180 1 180 0
181 1 181 0
182 1 182 0
183 1 183 0
184 1 184 0
185 1 185 0
186 1 186 0
187 1 187 0
188 1 188 0
189 1 189 0
190 1 190 0
191 1 191 0
192 1 192 0
193 1 193 0
194 1 194 0
195 1 195 0
196 1 196 0
197 1 197 0
198 1 198 0
199 1 199 0
200 1 200 0
201 1 201 0
202 1 202 0
203 1 203 0
204 1 204 0
205 1 205 0
206 1 206 0
207 1 207 0
208 1 208 0
209 1 209 0
210 1 210 0
211 1 211 0
212 1 212 0
213 1 213 0
214 1 214 0
215 1 215 0
216 1 216 0
217 1 217 0
218 1 218 0
219 1 219 0
220 1 220 0
221 1 221 0
222 1 222 0
223 1 223 0
224 1 224 0
225 1 225 0
226 1 226 0
227 1 227 0
228 1 228 0
229 1 229 0
230 1 230 0
231 1 231 0
232 1 232 0
233 1 233 0
234 1 234 0
235 1 235 0
236 1 236 0
237 1 237 0
238 1 238 0
239 1 239 0
240 1 240 0
241 1 241 0
242 1 242 0
243 1 243 0
244 1 244 0
245 1 245 0
246 1 246 0
247 1 247 0
248 1 248 0
249 1 249 0
250 1 250 0
251 1 251 0
252 1 252 0
253 1 253 0
254 1 254 0
255 1 255 0
256 1 256 0
257 1 257 0
258 1 258 0
259 1 259 0
260 1 260 0
261 1 261 0
262 1 262 0
263 1 263 0
264 1 264 0
265 1 265 0
266 1 266 0

# Extension specification for rotation events:
# id RotQuat0 RotQuatX RotQuatY RotQuatZ
extension ROTATIONS 1
1  0.998118 0 0 -0.0613207
2  0.998476 0 0 -0.0551952
3  0.998795 0 0 -0.0490677
4  0.999078 0 0 -0.0429383
5  0.999322 0 0 -0.0368072
6  0.999529 0 0 -0.0306748
7  0.999699 0 0 -0.0245412
8  0.999831 0 0 -0.0184067
9  0.999925 0 0 -0.0122715
10  0.999981 0 0 -0.00613588
11  1 0 0 0
12  0.999981 0 0 0.00613588
13  0.999925 0 0 0.0122715
14  0.999831 0 0 0.0184067
15  0.999699 0 0 0.0245412
16  0.999529 0 0 0.0306748
17  0.999322 0 0 0.0368072
18  0.999078 0 0 0.0429383
19  0.998795 0 0 0.0490677
20  0.998476 0 0 0.0551952
21  0.998118 0 0 0.0613207
22  0.997723 0 0 0.0674439
23  0.99729 0 0 0.0735646
24  0.99682 0 0 0.0796824
25  0.996313 0 0 0.0857973
26  0.995767 0 0 0.091909
27  0.995185 0 0 0.0980171
28  0.994565 0 0 0.104122
29  0.993907 0 0 0.110222
30  0.993212 0 0 0.116319
31  0.99248 0 0 0.122411
32  0.99171 0 0 0.128498
33  0.990903 0 0 0.134581
34  0.990058 0 0 0.140658
35  0.989177 0 0 0.14673
36  0.988258 0 0 0.152797
37  0.987301 0 0 0.158858
38  0.986308 0 0 0.164913
39  0.985278 0 0 0.170962
40  0.98421 0 0 0.177004
41  0.983105 0 0 0.18304
42  0.981964 0 0 0.189069
43  0.980785 0 0 0.19509
44  0.97957 0 0 0.201105
45  0.978317 0 0 0.207111
46  0.977028 0 0 0.21311
47  0.975702 0 0 0.219101
48  0.974339 0 0 0.225084
49  0.97294 0 0 0.231058
50  0.971504 0 0 0.237024
51  0.970031 0 0 0.24298
52  0.968522 0 0 0.248928
53  0.966976 0 0 0.254866
54  0.965394 0 0 0.260794
55  0.963776 0 0 0.266713
56  0.962121 0 0 0.272621
57  0.960431 0 0 0.27852
58  0.958703 0 0 0.284408
59  0.95694 0 0 0.290285
60  0.955141 0 0 0.296151
61  0.953306 0 0 0.302006
62  0.951435 0 0 0.30785
63  0.949528 0 0 0.313682
64  0.947586 0 0 0.319502
65  0.945607 0 0 0.32531
66  0.943593 0 0 0.331106
67  0.941544 0 0 0.33689
68  0.939459 0 0 0.342661
69  0.937339 0 0 0.348419
70  0.935184 0 0 0.354164
71  0.932993 0 0 0.359895
72  0.930767 0 0 0.365613
73  0.928506 0 0 0.371317
74  0.92621 0 0 0.377007
75  0.92388 0 0 0.382683
76  0.921514 0 0 0.388345
77  0.919114 0 0 0.393992
78  0.916679 0 0 0.399624
79  0.91421 0 0 0.405241
80  0.911706 0 0 0.410843
81  0.909168 0 0 0.41643
82  0.906596 0 0 0.422
83  0.903989 0 0 0.427555
84  0.901349 0 0 0.433094
85  0.898674 0 0 0.438616
86  0.895966 0 0 0.444122
87  0.893224 0 0 0.449611
88  0.890449 0 0 0.455084
89  0.88764 0 0 0.460539
90  0.884797 0 0 0.465976
91  0.881921 0 0 0.471397
92  0.879012 0 0 0.476799
93  0.87607 0 0 0.482184
94  0.873095 0 0 0.48755
95  0.870087 0 0 0.492898
96  0.867046 0 0 0.498228
97  0.863973 0 0 0.503538
98  0.860867 0 0 0.50883
99  0.857729 0 0 0.514103
100  0.854558 0 0 0.519356
101  0.851355 0 0 0.52459
102  0.84812 0 0 0.529804
103  0.844854 0 0 0.534998
104  0.841555 0 0 0.540171
105  0.838225 0 0 0.545325
106  0.834863 0 0 0.550458
107  0.83147 0 0 0.55557
108  0.828045 0 0 0.560662
109  0.824589 0 0 0.565732
110  0.821103 0 0 0.570781
111  0.817585 0 0 0.575808
112  0.814036 0 0 0.580814
113  0.810457 0 0 0.585798
114  0.806848 0 0 0.59076
115  0.803208 0 0 0.595699
116  0.799537 0 0 0.600616
117  0.795837 0 0 0.605511
118  0.792107 0 0 0.610383
119  0.788346 0 0 0.615232
120  0.784557 0 0 0.620057
121  0.780737 0 0 0.624859
122  0.776888 0 0 0.629638
123  0.77301 0 0 0.634393
124  0.769103 0 0 0.639124
125  0.765167 0 0 0.643832
126  0.761202 0 0 0.648514
127  0.757209 0 0 0.653173
128  0.753187 0 0 0.657807
129  0.749136 0 0 0.662416
130  0.745058 0 0 0.667
131  0.740951 0 0 0.671559
132  0.736817 0 0 0.676093
133  0.732654 0 0 0.680601
134  0.728464 0 0 0.685084
135  0.724247 0 0 0.689541
136  0.720003 0 0 0.693971
137  0.715731 0 0 0.698376
138  0.711432 0 0 0.702755
139  0.707107 0 0 0.707107
140  0.702755 0 0 0.711432
141  0.698376 0 0 0.715731
142  0.693971 0 0 0.720003
143  0.689541 0 0 0.724247
144  0.685084 0 0 0.728464
145  0.680601 0 0 0.732654
146  0.676093 0 0 0.736817
147  0.671559 0 0 0.740951
148  0.667 0 0 0.745058
149  0.662416 0 0 0.749136
150  0.657807 0 0 0.753187
151  0.653173 0 0 0.757209
152  0.648514 0 0 0.761202
153  0.643832 0 0 0.765167
154  0.639124 0 0 0.769103
155  0.634393 0 0 0.77301
156  0.629638 0 0 0.776888
157  0.624859 0 0 0.780737
158  0.620057 0 0 0.784557
159  0.615232 0 0 0.788346
160  0.610383 0 0 0.792107
161  0.605511 0 0 0.795837
162  0.600616 0 0 0.799537
163  0.595699 0 0 0.803208
164  0.59076 0 0 0.806848
165  0.585798 0 0 0.810457
166  0.580814 0 0 0.814036
167  0.575808 0 0 0.817585
168  0.570781 0 0 0.821103
169  0.565732 0 0 0.824589
170  0.560662 0 0 0.828045
171  0.55557 0 0 0.83147
172  0.550458 0 0 0.834863
173  0.545325 0 0 0.838225
174  0.540171 0 0 0.841555
175  0.534998 0 0 0.844854
176  0.529804 0 0 0.84812
177  0.52459 0 0 0.851355
178  0.519356 0 0 0.854558
179  0.514103 0 0 0.857729
180  0.50883 0 0 0.860867
181  0.503538 0 0 0.863973
182  0.498228 0 0 0.867046
183  0.492898 0 0 0.870087
184  0.48755 0 0 0.873095
185  0.482184 0 0 0.87607
186  0.476799 0 0 0.879012
187  0.471397 0 0 0.881921
188  0.465976 0 0 0.884797
189  0.460539 0 0 0.88764
190  0.455084 0 0 0.890449
191  0.449611 0 0 0.893224
192  0.444122 0 0 0.895966
193  0.438616 0 0 0.898674
194  0.433094 0 0 0.901349
195  0.427555 0 0 0.903989
196  0.422 0 0 0.906596
197  0.41643 0 0 0.909168
198  0.410843 0 0 0.911706
199  0.405241 0 0 0.91421
200  0.399624 0 0 0.916679
201  0.393992 0 0 0.919114
202  0.388345 0 0 0.921514
203  0.382683 0 0 0.92388
204  0.377007 0 0 0.92621
205  0.371317 0 0 0.928506
206  0.365613 0 0 0.930767
207  0.359895 0 0 0.932993
208  0.354164 0 0 0.935184
209  0.348419 0 0 0.937339
210  0.342661 0 0 0.939459
211  0.33689 0 0 0.941544
212  0.331106 0 0 0.943593
213  0.32531 0 0 0.945607
214  0.319502 0 0 0.947586
215  0.313682 0 0 0.949528
216  0.30785 0 0 0.951435
217  0.302006 0 0 0.953306
218  0.296151 0 0 0.955141
219  0.290285 0 0 0.95694
220  0.284408 0 0 0.958703
221  0.27852 0 0 0.960431
222  0.272621 0 0 0.962121
223  0.266713 0 0 0.963776
224  0.260794 0 0 0.965394
225  0.254866 0 0 0.966976
226  0.248928 0 0 0.968522
227  0.24298 0 0 0.970031
228  0.237024 0 0 0.971504
229  0.231058 0 0 0.97294
230  0.225084 0 0 0.974339
231  0.219101 0 0 0.975702
232  0.21311 0 0 0.977028
233  0.207111 0 0 0.978317
234  0.201105 0 0 0.97957
235  0.19509 0 0 0.980785
236  0.189069 0 0 0.981964
237  0.18304 0 0 0.983105
238  0.177004 0 0 0.98421
239  0.170962 0 0 0.985278
240  0.164913 0 0 0.986308
241  0.158858 0 0 0.987301
242  0.152797 0 0 0.988258
243  0.14673 0 0 0.989177
244  0.140658 0 0 0.990058
245  0.134581 0 0 0.990903
246  0.128498 0 0 0.99171
247  0.122411 0 0 0.99248
248  0.116319 0 0 0.993212
249  0.110222 0 0 0.993907
250  0.104122 0 0 0.994565
251  0.0980171 0 0 0.995185
252  0.091909 0 0 0.995767
253  0.0857973 0 0 0.996313
254  0.0796824 0 0 0.99682
255  0.0735646 0 0 0.99729
256  0.0674439 0 0 0.997723
257  0.0613207 0 0 0.998118
258  0.0551952 0 0 0.998476
259  0.0490677 0 0 0.998795
260  0.0429383 0 0 0.999078
261  0.0368072 0 0 0.999322
262  0.0306748 0 0 0.999529
263  0.0245412 0 0 0.999699
264  0.0184067 0 0 0.999831
265  0.0122715 0 0 0.999925
266  0.00613588 0 0 0.999981

# Sequence Shapes
[SHAPES]

shape_id 1
num_samples 400
3.8650164e-08
1.04868224e-06
4.87838881e-06
1.34494433e-05
2.87170054e-05
5.2668246e-05
8.73208341e-05
0.000134721389
0.000196943894
0.000276088085
0.000374277791
0.000493659261
0.000636399448
0.000804684268
0.00100071683
0.00122671566
0.00148491283
0.00177755219
0.00210688744
0.00247518026
0.00288469844
0.0033377139
0.00383650079
0.00438333352
0.00498048482
0.00563022371
0.00633481356
0.00709651006
0.00791755923
0.00880019542
0.00974663928
0.0107590957
0.011839752
0.0129907756
0.0142143122
0.0155124837
0.0168873864
0.0183410888
0.0198756294
0.0214930154
0.02319522
0.024984181
0.0268617985
0.0288299332
0.0308904044
0.0330449884
0.0352954161
0.0376433718
0.0400904908
0.0426383582
0.0452885067
0.0480424152
0.0509015068
0.0538671477
0.0569406448
0.0601232448
0.0634161324
0.0668204287
0.0703371898
0.0739674057
0.0777119984
0.0815718209
0.0855476556
0.0896402137
0.0938501333
0.0981779786
0.102624239
0.107189327
0.111873579
0.116677253
0.121600528
0.126643503
0.131806197
0.137088548
0.142490411
0.14801156
0.153651684
0.159410391
0.165287203
0.171281558
0.177392811
0.18362023
0.189962999
0.196420218
0.202990899
0.209673971
0.216468278
0.223372578
0.230385544
0.237505766
0.244731749
0.252061914
0.259494599
0.267028058
0.274660466
0.282389913
0.290214409
0.298131885
0.306140192
0.314237103
0.322420313
0.330687441
0.33903603
0.347463551
0.355967399
0.3645449
0.373193307
0.381909806
0.390691515
0.399535484
0.408438702
0.417398091
0.426410515
0.435472775
0.444581618
0.453733731
0.462925748
0.472154252
0.481415773
0.490706795
0.500023753
0.509363039
0.518721002
0.528093952
0.537478157
0.546869854
0.556265244
0.565660495
0.575051749
0.584435119
0.593806694
0.603162541
0.612498708
0.621811224
0.631096105
0.640349354
0.649566963
0.658744918
0.6678792
0.676965787
0.686000656
0.69497979
0.703899174
0.712754801
0.721542677
0.730258818
0.738899256
0.747460041
0.755937245
0.76432696
0.772625306
0.780828429
0.788932508
0.796933751
0.804828406
0.812612755
0.820283122
0.827835874
0.835267422
0.842574226
0.849752792
0.856799682
0.863711511
0.87048495
0.877116727
0.883603635
0.889942527
0.89613032
0.902164001
0.908040625
0.913757316
0.919311274
0.924699772
0.92992016
0.934969866
0.939846398
0.944547346
0.949070385
0.953413272
0.957573851
0.961550057
0.965339909
0.968941521
0.972353097
0.975572933
0.978599421
0.981431049
0.984066397
0.986504147
0.988743076
0.990782062
0.992620081
0.99425621
0.995689628
0.996919613
0.997945547
0.998766914
0.999383302
0.9997944
1
1
0.9997944
0.999383302
0.998766914
0.997945547
0.996919613
0.995689628
0.99425621
0.992620081
0.990782062
0.988743076
0.986504147
0.984066397
0.981431049
0.978599421
0.975572933
0.972353097
0.968941521
0.965339909
0.961550057
0.957573851
0.953413272
0.949070385
0.944547346
0.939846398
0.934969866
0.92992016
0.924699772
0.919311274
0.913757316
0.908040625
0.902164001
0.89613032
0.889942527
0.883603635
0.877116727
0.87048495
0.863711511
0.856799682
0.849752792
0.842574226
0.835267422
0.827835874
0.820283122
0.812612755
0.804828406
0.796933751
0.788932508
0.780828429
0.772625306
0.76432696
0.755937245
0.747460041
0.738899256
0.730258818
0.721542677
0.712754801
0.703899174
0.69497979
0.686000656
0.676965787
0.6678792
0.658744918
0.649566963
0.640349354
0.631096105
0.621811224
0.612498708
0.603162541
0.593806694
0.584435119
0.575051749
0.565660495
0.556265244
0.546869854
0.537478157
0.528093952
0.518721002
0.509363039
0.500023753
0.490706795
0.481415773
0.472154252
0.462925748
0.453733731
0.444581618
0.435472775
0.426410515
0.417398091
0.408438702
0.399535484
0.390691515
0.381909806
0.373193307
0.3645449
0.355967399
0.347463551
0.33903603
0.330687441
0.322420313
0.314237103
0.306140192
0.298131885
0.290214409
0.282389913
0.274660466
0.267028058
0.259494599
0.252061914
0.244731749
0.237505766
0.230385544
0.223372578
0.216468278
0.209673971
0.202990899
0.196420218
0.189962999
0.18362023
0.177392811
0.171281558
0.165287203
0.159410391
0.153651684
0.14801156
0.142490411
0.137088548
0.131806197
0.126643503
0.121600528
0.116677253
0.111873579
0.107189327
0.102624239
0.0981779786
0.0938501333
0.0896402137
0.0855476556
0.0815718209
0.0777119984
0.0739674057
0.0703371898
0.0668204287
0.0634161324
0.0601232448
0.0569406448
0.0538671477
0.0509015068
0.0480424152
0.0452885067
0.0426383582
0.0400904908
0.0376433718
0.0352954161
0.0330449884
0.0308904044
0.0288299332
0.0268617985
0.024984181
0.02319522
0.0214930154
0.0198756294
0.0183410888
0.0168873864
0.0155124837
0.0142143122
0.0129907756
0.011839752
0.0107590957
0.00974663928
0.00880019542
0.00791755923
0.00709651006
0.00633481356
0.00563022371
0.00498048482
0.00438333352
0.00383650079
0.0033377139
0.00288469844
0.00247518026
0.00210688744
0.00177755219
0.00148491283
0.00122671566
0.00100071683
0.000804684268
0.000636399448
0.000493659261
0.000374277791
0.000276088085
0.000196943894
0.000134721389
8.73208341e-05
5.2668246e-05
2.87170054e-05
1.34494433e-05
4.87838881e-06
1.04868224e-06
3.8650164e-08

shape_id 2
num_samples 400
0
0
398

shape_id 3
num_samples 6
0
0.771929825
0.771929825
0
-1
0

shape_id 4
num_samples 6
0
17
57
74
96
118


[SIGNATURE]
# This is the hash of the Pulseq file, calculated right before the [SIGNATURE]
# section was added. It can be reproduced/verified with md5sum if the file
# trimmed to the position right above [SIGNATURE]. The new line character
# preceding [SIGNATURE] BELONGS to the signature (and needs to be sripped away
# for recalculating/verification)
Type md5
Hash 65b1fd8f1b630c8081dc668469e8a728
