# Pulseq sequence file
# Created by MATLAB mr toolbox

[VERSION]
major 1
minor 5
revision 1

[DEFINITIONS]
AdcRasterTime 1e-07 
BlockDurationRaster 1e-05 
FOV 0.24 0.24 0.006 
GradientRasterTime 1e-05 
Name gre_rad 
RadiofrequencyRasterTime 1e-06 
TotalDuration 0.83401 

# Format of blocks:
# NUM DUR RF  GX  GY  GZ  ADC  EXT
[BLOCKS]
  1  32   0   0   0   1  0  0
  2 124   1   3   4   2  0  0
  3 189   0   6   7   5  0  0
  4 124   2   8   9   2  0  0
  5 189   0  10  11   5  0  0
  6 124   3  12  13   2  0  0
  7 189   0  14  15   5  0  0
  8 124   4  16  17   2  0  0
  9 189   0  18  19   5  0  0
 10 124   5  20  21   2  0  0
 11 189   0  22  23   5  0  0
 12 124   6  24  25   2  0  0
 13 189   0  26  27   5  0  0
 14 124   7  28  29   2  0  0
 15 189   0  30  31   5  0  0
 16 124   8  32  33   2  0  0
 17 189   0  34  35   5  0  0
 18 124   4  36  37   2  0  0
 19 189   0  38  39   5  0  0
 20 124   6  40  41   2  0  0
 21 189   0  42  43   5  0  0
 22 124   9  44   0   2  0  0
 23 189   0  45   0   5  1  0
 24 124   4  40  46   2  0  0
 25 189   0  42  47   5  2  0
 26 124  10  36  48   2  0  0
 27 189   0  38  49   5  3  0
 28 124   2  32  50   2  0  0
 29 189   0  34  51   5  4  0
 30 124   6  28  52   2  0  0
 31 189   0  30  53   5  5  0
 32 124   1  24  54   2  0  0
 33 189   0  26  55   5  6  0
 34 124  11  20  56   2  0  0
 35 189   0  22  57   5  7  0
 36 124   3  16  58   2  0  0
 37 189   0  18  59   5  8  0
 38 124   7  12  60   2  0  0
 39 189   0  14  61   5  9  0
 40 124   5   8  62   2  0  0
 41 189   0  10  63   5 10  0
 42 124   1   3  64   2  0  0
 43 189   0   6  65   5  6  0
 44 124   7  66  67   2  0  0
 45 189   0  68  69   5  9  0
 46 124  12  70  71   2  0  0
 47 189   0  72  73   5 11  0
 48 124   4  74  75   2  0  0
 49 189   0  76  77   5  2  0
 50 124   1  78  79   2  0  0
 51 189   0  80  81   5  6  0
 52 124   9  82  83   2  0  0
 53 189   0  84  85   5  1  0
 54 124   7  86  87   2  0  0
 55 189   0  88  89   5  9  0
 56 124  10  90  91   2  0  0
 57 189   0  92  93   5  3  0
 58 124  11  94  95   2  0  0
 59 189   0  96  97   5  7  0
 60 124   6  98  99   2  0  0
 61 189   0 100 101   5  5  0
 62 124   6 102 103   2  0  0
 63 189   0 104 105   5  5  0
 64 124  11 106 107   2  0  0
 65 189   0 108 109   5  7  0
 66 124  10 110 111   2  0  0
 67 189   0 112 113   5  3  0
 68 124   7 114 115   2  0  0
 69 189   0 116 117   5  9  0
 70 124   9 118 119   2  0  0
 71 189   0 120 121   5  1  0
 72 124   1 122 123   2  0  0
 73 189   0 124 125   5  6  0
 74 124   4 126 127   2  0  0
 75 189   0 128 129   5  2  0
 76 124  12 130 131   2  0  0
 77 189   0 132 133   5 11  0
 78 124   7 134 135   2  0  0
 79 189   0 136 137   5  9  0
 80 124   1 138 139   2  0  0
 81 189   0 140 141   5  6  0
 82 124   5 142 143   2  0  0
 83 189   0 144 145   5 10  0
 84 124   7 146 147   2  0  0
 85 189   0 148 149   5  9  0
 86 124   3 150 151   2  0  0
 87 189   0 152 153   5  8  0
 88 124  11 154 155   2  0  0
 89 189   0 156 157   5  7  0
 90 124   1 158 159   2  0  0
 91 189   0 160 161   5  6  0
 92 124   6 162 163   2  0  0
 93 189   0 164 165   5  5  0
 94 124   2 166 167   2  0  0
 95 189   0 168 169   5  4  0
 96 124  10 170 171   2  0  0
 97 189   0 172 173   5  3  0
 98 124   4 174 175   2  0  0
 99 189   0 176 177   5  2  0
100 124   9 178 179   2  0  0
101 189   0 180 181   5  1  0
102 124   6 182 183   2  0  0
103 189   0 184 185   5  5  0
104 124   4 186 187   2  0  0
105 189   0 188 189   5  2  0
106 124   8 190 191   2  0  0
107 189   0 192 193   5 12  0
108 124   7 194 195   2  0  0
109 189   0 196 197   5  9  0
110 124   6 198 199   2  0  0
111 189   0 200 201   5  5  0
112 124   5 202 203   2  0  0
113 189   0 204 205   5 10  0
114 124   4 206 207   2  0  0
115 189   0 208 209   5  2  0
116 124   3 210 211   2  0  0
117 189   0 212 213   5  8  0
118 124   2 214 215   2  0  0
119 189   0 216 217   5  4  0
120 124   1 218 219   2  0  0
121 189   0 220 221   5  6  0
122 124   1 222 223   2  0  0
123 189   0 224 225   5  6  0
124 124   2 226 227   2  0  0
125 189   0 228 229   5  4  0
126 124   3 230 231   2  0  0
127 189   0 232 233   5  8  0
128 124   4 234 235   2  0  0
129 189   0 236 237   5  2  0
130 124   5 238 239   2  0  0
131 189   0 240 241   5 10  0
132 124   6 242 243   2  0  0
133 189   0 244 245   5  5  0
134 124   7 246 247   2  0  0
135 189   0 248 249   5  9  0
136 124   8 250 251   2  0  0
137 189   0 252 253   5 12  0
138 124   4 254 255   2  0  0
139 189   0 256 257   5  2  0
140 124   6 258 259   2  0  0
141 189   0 260 261   5  5  0
142 124   9 262 263   2  0  0
143 189   0 264 265   5  1  0
144 124   4 266 267   2  0  0
145 189   0 268 269   5  2  0
146 124  10 270 271   2  0  0
147 189   0 272 273   5  3  0
148 124   2 274 275   2  0  0
149 189   0 276 277   5  4  0
150 124   6 278 278   2  0  0
151 189   0 279 279   5  5  0
152 124   1 275 274   2  0  0
153 189   0 277 276   5  6  0
154 124  11 271 270   2  0  0
155 189   0 273 272   5  7  0
156 124   3 267 266   2  0  0
157 189   0 269 268   5  8  0
158 124   7 263 262   2  0  0
159 189   0 265 264   5  9  0
160 124   5 259 258   2  0  0
161 189   0 261 260   5 10  0
162 124   1 255 254   2  0  0
163 189   0 257 256   5  6  0
164 124   7 251 250   2  0  0
165 189   0 253 252   5  9  0
166 124  12 247 246   2  0  0
167 189   0 249 248   5 11  0
168 124   4 243 242   2  0  0
169 189   0 245 244   5  2  0
170 124   1 239 238   2  0  0
171 189   0 241 240   5  6  0
172 124   9 235 234   2  0  0
173 189   0 237 236   5  1  0
174 124   7 231 230   2  0  0
175 189   0 233 232   5  9  0
176 124  10 227 226   2  0  0
177 189   0 229 228   5  3  0
178 124  11 223 222   2  0  0
179 189   0 225 224   5  7  0
180 124   6 219 218   2  0  0
181 189   0 221 220   5  5  0
182 124   6 215 214   2  0  0
183 189   0 217 216   5  5  0
184 124  11 211 210   2  0  0
185 189   0 213 212   5  7  0
186 124  10 207 206   2  0  0
187 189   0 209 208   5  3  0
188 124   7 203 202   2  0  0
189 189   0 205 204   5  9  0
190 124   9 199 198   2  0  0
191 189   0 201 200   5  1  0
192 124   1 195 194   2  0  0
193 189   0 197 196   5  6  0
194 124   4 191 190   2  0  0
195 189   0 193 192   5  2  0
196 124  12 187 186   2  0  0
197 189   0 189 188   5 11  0
198 124   7 183 182   2  0  0
199 189   0 185 184   5  9  0
200 124   1 179 178   2  0  0
201 189   0 181 180   5  6  0
202 124   5 175 174   2  0  0
203 189   0 177 176   5 10  0
204 124   7 171 170   2  0  0
205 189   0 173 172   5  9  0
206 124   3 167 166   2  0  0
207 189   0 169 168   5  8  0
208 124  11 163 162   2  0  0
209 189   0 165 164   5  7  0
210 124   1 159 158   2  0  0
211 189   0 161 160   5  6  0
212 124   6 155 154   2  0  0
213 189   0 157 156   5  5  0
214 124   2 151 150   2  0  0
215 189   0 153 152   5  4  0
216 124  10 147 146   2  0  0
217 189   0 149 148   5  3  0
218 124   4 143 142   2  0  0
219 189   0 145 144   5  2  0
220 124   9 139 138   2  0  0
221 189   0 141 140   5  1  0
222 124   6 135 134   2  0  0
223 189   0 137 136   5  5  0
224 124   4 131 130   2  0  0
225 189   0 133 132   5  2  0
226 124   8 127 126   2  0  0
227 189   0 129 128   5 12  0
228 124   7 123 122   2  0  0
229 189   0 125 124   5  9  0
230 124   6 119 118   2  0  0
231 189   0 121 120   5  5  0
232 124   5 115 114   2  0  0
233 189   0 117 116   5 10  0
234 124   4 111 110   2  0  0
235 189   0 113 112   5  2  0
236 124   3 107 106   2  0  0
237 189   0 109 108   5  8  0
238 124   2 103 102   2  0  0
239 189   0 105 104   5  4  0
240 124   1  99  98   2  0  0
241 189   0 101 100   5  6  0
242 124   1  95  94   2  0  0
243 189   0  97  96   5  6  0
244 124   2  91  90   2  0  0
245 189   0  93  92   5  4  0
246 124   3  87  86   2  0  0
247 189   0  89  88   5  8  0
248 124   4  83  82   2  0  0
249 189   0  85  84   5  2  0
250 124   5  79  78   2  0  0
251 189   0  81  80   5 10  0
252 124   6  75  74   2  0  0
253 189   0  77  76   5  5  0
254 124   7  71  70   2  0  0
255 189   0  73  72   5  9  0
256 124   8  67  66   2  0  0
257 189   0  69  68   5 12  0
258 124   4  64   3   2  0  0
259 189   0  65   6   5  2  0
260 124   6  62   8   2  0  0
261 189   0  63  10   5  5  0
262 124   9  60  12   2  0  0
263 189   0  61  14   5  1  0
264 124   4  58  16   2  0  0
265 189   0  59  18   5  2  0
266 124  10  56  20   2  0  0
267 189   0  57  22   5  3  0
268 124   2  54  24   2  0  0
269 189   0  55  26   5  4  0
270 124   6  52  28   2  0  0
271 189   0  53  30   5  5  0
272 124   1  50  32   2  0  0
273 189   0  51  34   5  6  0
274 124  11  48  36   2  0  0
275 189   0  49  38   5  7  0
276 124   3  46  40   2  0  0
277 189   0  47  42   5  8  0
278 124   7   0  44   2  0  0
279 189   0   0  45   5  9  0
280 124   5  41  40   2  0  0
281 189   0  43  42   5 10  0
282 124   1  37  36   2  0  0
283 189   0  39  38   5  6  0
284 124   7  33  32   2  0  0
285 189   0  35  34   5  9  0
286 124  12  29  28   2  0  0
287 189   0  31  30   5 11  0
288 124   4  25  24   2  0  0
289 189   0  27  26   5  2  0
290 124   1  21  20   2  0  0
291 189   0  23  22   5  6  0
292 124   9  17  16   2  0  0
293 189   0  19  18   5  1  0
294 124   7  13  12   2  0  0
295 189   0  15  14   5  9  0
296 124  10   9   8   2  0  0
297 189   0  11  10   5  3  0
298 124  11   4   3   2  0  0
299 189   0   7   6   5  7  0
300 124   6 280  66   2  0  0
301 189   0 281  68   5  5  0
302 124   6 282  70   2  0  0
303 189   0 283  72   5  5  0
304 124  11 284  74   2  0  0
305 189   0 285  76   5  7  0
306 124  10 286  78   2  0  0
307 189   0 287  80   5  3  0
308 124   7 288  82   2  0  0
309 189   0 289  84   5  9  0
310 124   9 290  86   2  0  0
311 189   0 291  88   5  1  0
312 124   1 292  90   2  0  0
313 189   0 293  92   5  6  0
314 124   4 294  94   2  0  0
315 189   0 295  96   5  2  0
316 124  12 296  98   2  0  0
317 189   0 297 100   5 11  0
318 124   7 298 102   2  0  0
319 189   0 299 104   5  9  0
320 124   1 300 106   2  0  0
321 189   0 301 108   5  6  0
322 124   5 302 110   2  0  0
[RF]
1      85.1853 3 4 0 200 100 0 0 0 0 e
2      85.1853 3 4 0 200 100 0 0 0 1.46608 e
3      85.1853 3 4 0 200 100 0 0 0 4.39823 e
4      85.1853 3 4 0 200 100 0 0 0 2.51327 e
5      85.1853 3 4 0 200 100 0 0 0 2.0944 e
6      85.1853 3 4 0 200 100 0 0 0 3.14159 e
7      85.1853 3 4 0 200 100 0 0 0 5.65487 e
8      85.1853 3 4 0 200 100 0 0 0 3.35103 e
9      85.1853 3 4 0 200 100 0 0 0 5.23599 e
10      85.1853 3 4 0 200 100 0 0 0 1.25664 e
11      85.1853 3 4 0 200 100 0 0 0 4.60767 e
12      85.1853 3 4 0 200 100 0 0 0 0.20944 e

# Format of arbitrary gradients:
#   time_shape_id of 0 means default timing (stepping with grad_raster starting at 1/2 of grad_raster)
# id amplitude first last amp_shape_id time_shape_id delay
# ..      Hz/m  Hz/m Hz/m        ..         ..          us
[GRADIENTS]
1  1.15385e+06            0  1.15385e+06 1 2 0
2  1.15385e+06  1.15385e+06            0 5 6 0
5  1.15385e+06            0  1.15385e+06 1 2 1570

# Format of trapezoid gradients:
# id amplitude rise flat fall delay
# ..      Hz/m   us   us   us    us
[TRAP]
 3 -1.17814e+06 240  240 240 520
 4       145310 240  240 240 520
 6       827066 170 1550 170   0
 7      -102009 170 1550 170   0
 8 -1.17983e+06 240  240 240 520
 9       130841 240  240 240 520
10       828256 170 1550 170   0
11     -91851.8 170 1550 170   0
12 -1.18135e+06 240  240 240 520
13       116353 240  240 240 520
14       829321 170 1550 170   0
15       -81681 170 1550 170   0
16 -1.18269e+06 240  240 240 520
17       101847 240  240 240 520
18       830261 170 1550 170   0
19     -71497.8 170 1550 170   0
20 -1.18385e+06 240  240 240 520
21        87326 240  240 240 520
22       831075 170 1550 170   0
23     -61303.8 170 1550 170   0
24 -1.18483e+06 240  240 240 520
25      72791.8 240  240 240 520
26       831765 170 1550 170   0
27     -51100.6 170 1550 170   0
28 -1.18564e+06 240  240 240 520
29      58246.6 240  240 240 520
30       832330 170 1550 170   0
31     -40889.7 170 1550 170   0
32 -1.18626e+06 240  240 240 520
33      43692.6 240  240 240 520
34       832769 170 1550 170   0
35     -30672.7 170 1550 170   0
36 -1.18671e+06 240  240 240 520
37      29132.1 240  240 240 520
38       833082 170 1550 170   0
39       -20451 170 1550 170   0
40 -1.18698e+06 240  240 240 520
41      14567.1 240  240 240 520
42       833271 170 1550 170   0
43     -10226.3 170 1550 170   0
44 -1.18707e+06 240  240 240 520
45       833333 170 1550 170   0
46     -14567.1 240  240 240 520
47      10226.3 170 1550 170   0
48     -29132.1 240  240 240 520
49        20451 170 1550 170   0
50     -43692.6 240  240 240 520
51      30672.7 170 1550 170   0
52     -58246.6 240  240 240 520
53      40889.7 170 1550 170   0
54     -72791.8 240  240 240 520
55      51100.6 170 1550 170   0
56       -87326 240  240 240 520
57      61303.8 170 1550 170   0
58      -101847 240  240 240 520
59      71497.8 170 1550 170   0
60      -116353 240  240 240 520
61        81681 170 1550 170   0
62      -130841 240  240 240 520
63      91851.8 170 1550 170   0
64      -145310 240  240 240 520
65       102009 170 1550 170   0
66 -1.17627e+06 240  240 240 520
67      -159756 240  240 240 520
68       825752 170 1550 170   0
69       112151 170 1550 170   0
70 -1.17422e+06 240  240 240 520
71      -174179 240  240 240 520
72       824314 170 1550 170   0
73       122275 170 1550 170   0
74 -1.17199e+06 240  240 240 520
75      -188575 240  240 240 520
76       822751 170 1550 170   0
77       132382 170 1550 170   0
78 -1.16959e+06 240  240 240 520
79      -202943 240  240 240 520
80       821065 170 1550 170   0
81       142468 170 1550 170   0
82 -1.16701e+06 240  240 240 520
83      -217280 240  240 240 520
84       819255 170 1550 170   0
85       152533 170 1550 170   0
86 -1.16426e+06 240  240 240 520
87      -231585 240  240 240 520
88       817321 170 1550 170   0
89       162575 170 1550 170   0
90 -1.16133e+06 240  240 240 520
91      -245855 240  240 240 520
92       815264 170 1550 170   0
93       172593 170 1550 170   0
94 -1.15822e+06 240  240 240 520
95      -260088 240  240 240 520
96       813085 170 1550 170   0
97       182584 170 1550 170   0
98 -1.15494e+06 240  240 240 520
99      -274281 240  240 240 520
100       810783 170 1550 170   0
101       192548 170 1550 170   0
102 -1.15149e+06 240  240 240 520
103      -288434 240  240 240 520
104       808359 170 1550 170   0
105       202483 170 1550 170   0
106 -1.14786e+06 240  240 240 520
107      -302542 240  240 240 520
108       805814 170 1550 170   0
109       212388 170 1550 170   0
110 -1.14407e+06 240  240 240 520
111      -316606 240  240 240 520
112       803147 170 1550 170   0
113       222261 170 1550 170   0
114 -1.14009e+06 240  240 240 520
115      -330621 240  240 240 520
116       800359 170 1550 170   0
117       232100 170 1550 170   0
118 -1.13595e+06 240  240 240 520
119      -344587 240  240 240 520
120       797450 170 1550 170   0
121       241904 170 1550 170   0
122 -1.13164e+06 240  240 240 520
123      -358501 240  240 240 520
124       794422 170 1550 170   0
125       251672 170 1550 170   0
126 -1.12715e+06 240  240 240 520
127      -372361 240  240 240 520
128       791273 170 1550 170   0
129       261401 170 1550 170   0
130  -1.1225e+06 240  240 240 520
131      -386165 240  240 240 520
132       788006 170 1550 170   0
133       271092 170 1550 170   0
134 -1.11767e+06 240  240 240 520
135      -399910 240  240 240 520
136       784620 170 1550 170   0
137       280742 170 1550 170   0
138 -1.11268e+06 240  240 240 520
139      -413596 240  240 240 520
140       781116 170 1550 170   0
141       290349 170 1550 170   0
142 -1.10752e+06 240  240 240 520
143      -427219 240  240 240 520
144       777494 170 1550 170   0
145       299913 170 1550 170   0
146  -1.1022e+06 240  240 240 520
147      -440778 240  240 240 520
148       773755 170 1550 170   0
149       309431 170 1550 170   0
150 -1.09671e+06 240  240 240 520
151      -454270 240  240 240 520
152       769900 170 1550 170   0
153       318903 170 1550 170   0
154 -1.09105e+06 240  240 240 520
155      -467695 240  240 240 520
156       765928 170 1550 170   0
157       328327 170 1550 170   0
158 -1.08523e+06 240  240 240 520
159      -481048 240  240 240 520
160       761841 170 1550 170   0
161       337701 170 1550 170   0
162 -1.07924e+06 240  240 240 520
163      -494329 240  240 240 520
164       757640 170 1550 170   0
165       347025 170 1550 170   0
166 -1.07309e+06 240  240 240 520
167      -507536 240  240 240 520
168       753324 170 1550 170   0
169       356296 170 1550 170   0
170 -1.06679e+06 240  240 240 520
171      -520666 240  240 240 520
172       748895 170 1550 170   0
173       365514 170 1550 170   0
174 -1.06032e+06 240  240 240 520
175      -533718 240  240 240 520
176       744354 170 1550 170   0
177       374676 170 1550 170   0
178 -1.05369e+06 240  240 240 520
179      -546690 240  240 240 520
180       739700 170 1550 170   0
181       383782 170 1550 170   0
182  -1.0469e+06 240  240 240 520
183      -559579 240  240 240 520
184       734934 170 1550 170   0
185       392831 170 1550 170   0
186 -1.03995e+06 240  240 240 520
187      -572384 240  240 240 520
188       730058 170 1550 170   0
189       401820 170 1550 170   0
190 -1.03285e+06 240  240 240 520
191      -585103 240  240 240 520
192       725072 170 1550 170   0
193       410748 170 1550 170   0
194 -1.02559e+06 240  240 240 520
195      -597733 240  240 240 520
196       719977 170 1550 170   0
197       419615 170 1550 170   0
198 -1.01818e+06 240  240 240 520
199      -610274 240  240 240 520
200       714774 170 1550 170   0
201       428419 170 1550 170   0
202 -1.01061e+06 240  240 240 520
203      -622723 240  240 240 520
204       709463 170 1550 170   0
205       437158 170 1550 170   0
206  -1.0029e+06 240  240 240 520
207      -635077 240  240 240 520
208       704045 170 1550 170   0
209       445831 170 1550 170   0
210      -995028 240  240 240 520
211      -647337 240  240 240 520
212       698521 170 1550 170   0
213       454437 170 1550 170   0
214      -987009 240  240 240 520
215      -659499 240  240 240 520
216       692891 170 1550 170   0
217       462975 170 1550 170   0
218      -978842 240  240 240 520
219      -671561 240  240 240 520
220       687158 170 1550 170   0
221       471443 170 1550 170   0
222      -970527 240  240 240 520
223      -683522 240  240 240 520
224       681321 170 1550 170   0
225       479840 170 1550 170   0
226      -962066 240  240 240 520
227      -695381 240  240 240 520
228       675381 170 1550 170   0
229       488165 170 1550 170   0
230      -953460 240  240 240 520
231      -707134 240  240 240 520
232       669340 170 1550 170   0
233       496416 170 1550 170   0
234      -944711 240  240 240 520
235      -718782 240  240 240 520
236       663197 170 1550 170   0
237       504593 170 1550 170   0
238      -935819 240  240 240 520
239      -730320 240  240 240 520
240       656955 170 1550 170   0
241       512693 170 1550 170   0
242      -926787 240  240 240 520
243      -741749 240  240 240 520
244       650614 170 1550 170   0
245       520716 170 1550 170   0
246      -917614 240  240 240 520
247      -753067 240  240 240 520
248       644175 170 1550 170   0
249       528661 170 1550 170   0
250      -908304 240  240 240 520
251      -764271 240  240 240 520
252       637639 170 1550 170   0
253       536526 170 1550 170   0
254      -898857 240  240 240 520
255      -775359 240  240 240 520
256       631007 170 1550 170   0
257       544311 170 1550 170   0
258      -889274 240  240 240 520
259      -786331 240  240 240 520
260       624280 170 1550 170   0
261       552013 170 1550 170   0
262      -879558 240  240 240 520
263      -797185 240  240 240 520
264       617459 170 1550 170   0
265       559632 170 1550 170   0
266      -869709 240  240 240 520
267      -807918 240  240 240 520
268       610545 170 1550 170   0
269       567167 170 1550 170   0
270      -859729 240  240 240 520
271      -818530 240  240 240 520
272       603539 170 1550 170   0
273       574617 170 1550 170   0
274      -849620 240  240 240 520
275      -829019 240  240 240 520
276       596442 170 1550 170   0
277       581980 170 1550 170   0
278      -839382 240  240 240 520
279       589256 170 1550 170   0
280       159756 240  240 240 520
281      -112151 170 1550 170   0
282       174179 240  240 240 520
283      -122275 170 1550 170   0
284       188575 240  240 240 520
285      -132382 170 1550 170   0
286       202943 240  240 240 520
287      -142468 170 1550 170   0
288       217280 240  240 240 520
289      -152533 170 1550 170   0
290       231585 240  240 240 520
291      -162575 170 1550 170   0
292       245855 240  240 240 520
293      -172593 170 1550 170   0
294       260088 240  240 240 520
295      -182584 170 1550 170   0
296       274281 240  240 240 520
297      -192548 170 1550 170   0
298       288434 240  240 240 520
299      -202483 170 1550 170   0
300       302542 240  240 240 520
301      -212388 170 1550 170   0
302       316606 240  240 240 520
303      -222261 170 1550 170   0
304       330621 240  240 240 520
305      -232100 170 1550 170   0
306       344587 240  240 240 520
307      -241904 170 1550 170   0
308       358501 240  240 240 520
309      -251672 170 1550 170   0
310       372361 240  240 240 520
311      -261401 170 1550 170   0
312       386165 240  240 240 520
313      -271092 170 1550 170   0
314       399910 240  240 240 520
315      -280742 170 1550 170   0
316       413596 240  240 240 520
317      -290349 170 1550 170   0
318       427219 240  240 240 520
319      -299913 170 1550 170   0
320       440778 240  240 240 520
321      -309431 170 1550 170   0
322       454270 240  240 240 520
323      -318903 170 1550 170   0
324       467695 240  240 240 520
325      -328327 170 1550 170   0
326       481048 240  240 240 520
327      -337701 170 1550 170   0
328       494329 240  240 240 520
329      -347025 170 1550 170   0
330       507536 240  240 240 520
331      -356296 170 1550 170   0
332       520666 240  240 240 520
333      -365514 170 1550 170   0
334       533718 240  240 240 520
335      -374676 170 1550 170   0
336       546690 240  240 240 520
337      -383782 170 1550 170   0
338       559579 240  240 240 520
339      -392831 170 1550 170   0
340       572384 240  240 240 520
341      -401820 170 1550 170   0
342       585103 240  240 240 520
343      -410748 170 1550 170   0
344       597733 240  240 240 520
345      -419615 170 1550 170   0
346       610274 240  240 240 520
347      -428419 170 1550 170   0
348       622723 240  240 240 520
349      -437158 170 1550 170   0
350       635077 240  240 240 520
351      -445831 170 1550 170   0
352       647337 240  240 240 520
353      -454437 170 1550 170   0
354       659499 240  240 240 520
355      -462975 170 1550 170   0
356       671561 240  240 240 520
357      -471443 170 1550 170   0
358       683522 240  240 240 520
359      -479840 170 1550 170   0
360       695381 240  240 240 520
361      -488165 170 1550 170   0
362       707134 240  240 240 520
363      -496416 170 1550 170   0
364       718782 240  240 240 520
365      -504593 170 1550 170   0
366       730320 240  240 240 520
367      -512693 170 1550 170   0
368       741749 240  240 240 520
369      -520716 170 1550 170   0
370       753067 240  240 240 520
371      -528661 170 1550 170   0
372       764271 240  240 240 520
373      -536526 170 1550 170   0
374       775359 240  240 240 520
375      -544311 170 1550 170   0
376       786331 240  240 240 520
377      -552013 170 1550 170   0
378       797185 240  240 240 520
379      -559632 170 1550 170   0
380       807918 240  240 240 520
381      -567167 170 1550 170   0
382       818530 240  240 240 520
383      -574617 170 1550 170   0
384       829019 240  240 240 520
385      -581980 170 1550 170   0
386       839382 240  240 240 520
387      -589256 170 1550 170   0
388       849620 240  240 240 520
389      -596442 170 1550 170   0
390       859729 240  240 240 520
391      -603539 170 1550 170   0
392       869709 240  240 240 520
393      -610545 170 1550 170   0
394       879558 240  240 240 520
395      -617459 170 1550 170   0
396       889274 240  240 240 520
397      -624280 170 1550 170   0
398       898857 240  240 240 520
399      -631007 170 1550 170   0
400       908304 240  240 240 520
401      -637639 170 1550 170   0
402       917614 240  240 240 520
403      -644175 170 1550 170   0
404       926787 240  240 240 520
405      -650614 170 1550 170   0
406       935819 240  240 240 520
407      -656955 170 1550 170   0
408       944711 240  240 240 520
409      -663197 170 1550 170   0
410       953460 240  240 240 520
411      -669340 170 1550 170   0
412       962066 240  240 240 520
413      -675381 170 1550 170   0
414       970527 240  240 240 520
415      -681321 170 1550 170   0
416       978842 240  240 240 520
417      -687158 170 1550 170   0
418       987009 240  240 240 520
419      -692891 170 1550 170   0
420       995028 240  240 240 520
421      -698521 170 1550 170   0
422   1.0029e+06 240  240 240 520
423      -704045 170 1550 170   0
424  1.01061e+06 240  240 240 520
425      -709463 170 1550 170   0
426  1.01818e+06 240  240 240 520
427      -714774 170 1550 170   0
428  1.02559e+06 240  240 240 520
429      -719977 170 1550 170   0
430  1.03285e+06 240  240 240 520
431      -725072 170 1550 170   0
432  1.03995e+06 240  240 240 520
433      -730058 170 1550 170   0
434   1.0469e+06 240  240 240 520
435      -734934 170 1550 170   0
436  1.05369e+06 240  240 240 520
437      -739700 170 1550 170   0
438  1.06032e+06 240  240 240 520
439      -744354 170 1550 170   0
440  1.06679e+06 240  240 240 520
441      -748895 170 1550 170   0
442  1.07309e+06 240  240 240 520
443      -753324 170 1550 170   0
444  1.07924e+06 240  240 240 520
445      -757640 170 1550 170   0
446  1.08523e+06 240  240 240 520
447      -761841 170 1550 170   0
448  1.09105e+06 240  240 240 520
449      -765928 170 1550 170   0
450  1.09671e+06 240  240 240 520
451      -769900 170 1550 170   0
452   1.1022e+06 240  240 240 520
453      -773755 170 1550 170   0
454  1.10752e+06 240  240 240 520
455      -777494 170 1550 170   0
456  1.11268e+06 240  240 240 520
457      -781116 170 1550 170   0
458  1.11767e+06 240  240 240 520
459      -784620 170 1550 170   0
460   1.1225e+06 240  240 240 520
461      -788006 170 1550 170   0
462  1.12715e+06 240  240 240 520
463      -791273 170 1550 170   0
464  1.13164e+06 240  240 240 520
465      -794422 170 1550 170   0
466  1.13595e+06 240  240 240 520
467      -797450 170 1550 170   0
468  1.14009e+06 240  240 240 520
469      -800359 170 1550 170   0
470  1.14407e+06 240  240 240 520
471      -803147 170 1550 170   0
472  1.14786e+06 240  240 240 520
473      -805814 170 1550 170   0
474  1.15149e+06 240  240 240 520
475      -808359 170 1550 170   0
476  1.15494e+06 240  240 240 520
477      -810783 170 1550 170   0
478  1.15822e+06 240  240 240 520
479      -813085 170 1550 170   0
480  1.16133e+06 240  240 240 520
481      -815264 170 1550 170   0
482  1.16426e+06 240  240 240 520
483      -817321 170 1550 170   0
484  1.16701e+06 240  240 240 520
485      -819255 170 1550 170   0
486  1.16959e+06 240  240 240 520
487      -821065 170 1550 170   0
488  1.17199e+06 240  240 240 520
489      -822751 170 1550 170   0
490  1.17422e+06 240  240 240 520
491      -824314 170 1550 170   0
492  1.17627e+06 240  240 240 520
493      -825752 170 1550 170   0
494  1.17814e+06 240  240 240 520
495      -827066 170 1550 170   0
496  1.17983e+06 240  240 240 520
497      -828256 170 1550 170   0
498  1.18135e+06 240  240 240 520
499      -829321 170 1550 170   0
500  1.18269e+06 240  240 240 520
501      -830261 170 1550 170   0
502  1.18385e+06 240  240 240 520
503      -831075 170 1550 170   0
504  1.18483e+06 240  240 240 520
505      -831765 170 1550 170   0
506  1.18564e+06 240  240 240 520
507      -832330 170 1550 170   0
508  1.18626e+06 240  240 240 520
509      -832769 170 1550 170   0
510  1.18671e+06 240  240 240 520
511      -833082 170 1550 170   0
512  1.18698e+06 240  240 240 520
513      -833271 170 1550 170   0

# Format of ADC events:
# id num dwell delay freqPPM phasePPM freq phase phase_id
# ..  ..    ns    us     ppm  rad/MHz   Hz   rad       ..
[ADC]
1 480 2500 170 0 0 0 5.23599 0
2 480 2500 170 0 0 0 2.51327 0
3 480 2500 170 0 0 0 1.25664 0
4 480 2500 170 0 0 0 1.46608 0
5 480 2500 170 0 0 0 3.14159 0
6 480 2500 170 0 0 0 0 0
7 480 2500 170 0 0 0 4.60767 0
8 480 2500 170 0 0 0 4.39823 0
9 480 2500 170 0 0 0 5.65487 0
10 480 2500 170 0 0 0 2.0944 0
11 480 2500 170 0 0 0 0.20944 0
12 480 2500 170 0 0 0 3.35103 0

# Sequence Shapes
[SHAPES]

shape_id 1
num_samples 3
0
1
1

shape_id 2
num_samples 3
0
24
32

shape_id 3
num_samples 400
3.8650164e-08
1.04868224e-06
4.87838881e-06
1.34494433e-05
2.87170054e-05
5.2668246e-05
8.73208341e-05
0.000134721389
0.000196943894
0.000276088085
0.000374277791
0.000493659261
0.000636399448
0.000804684268
0.00100071683
0.00122671566
0.00148491283
0.00177755219
0.00210688744
0.00247518026
0.00288469844
0.0033377139
0.00383650079
0.00438333352
0.00498048482
0.00563022371
0.00633481356
0.00709651006
0.00791755923
0.00880019542
0.00974663928
0.0107590957
0.011839752
0.0129907756
0.0142143122
0.0155124837
0.0168873864
0.0183410888
0.0198756294
0.0214930154
0.02319522
0.024984181
0.0268617985
0.0288299332
0.0308904044
0.0330449884
0.0352954161
0.0376433718
0.0400904908
0.0426383582
0.0452885067
0.0480424152
0.0509015068
0.0538671477
0.0569406448
0.0601232448
0.0634161324
0.0668204287
0.0703371898
0.0739674057
0.0777119984
0.0815718209
0.0855476556
0.0896402137
0.0938501333
0.0981779786
0.102624239
0.107189327
0.111873579
0.116677253
0.121600528
0.126643503
0.131806197
0.137088548
0.142490411
0.14801156
0.153651684
0.159410391
0.165287203
