# Pulseq sequence file
# Created by MATLAB mr toolbox

[VERSION]
major 1
minor 5
revision 1

[DEFINITIONS]
AdcRasterTime 1e-07 
BlockDurationRaster 1e-05 
FOV 0.26 0.26 0.003 
GradientRasterTime 1e-05 
Name gre_rad 
RadiofrequencyRasterTime 1e-06 
RequiredExtensions ROTATIONS 
TotalDuration 5.54277 

# Format of blocks:
# NUM DUR RF  GX  GY  GZ  ADC  EXT
[BLOCKS]
   1 417   1   0   0   1  0  0
   2 200   0   2   0   3  0  1
   3 310   0   0   0   0  0  0
   4 166   0   4   0   0  0  1
   5 908   0   5   0   6  0  1
   6 417   2   0   0   1  0  0
   7 200   0   2   0   3  0  2
   8 310   0   0   0   0  0  0
   9 166   0   4   0   0  0  2
  10 908   0   5   0   6  0  2
  11 417   3   0   0   1  0  0
  12 200   0   2   0   3  0  3
  13 310   0   0   0   0  0  0
  14 166   0   4   0   0  0  3
  15 908   0   5   0   6  0  3
  16 417   4   0   0   1  0  0
  17 200   0   2   0   3  0  4
  18 310   0   0   0   0  0  0
  19 166   0   4   0   0  0  4
  20 908   0   5   0   6  0  4
  21 417   5   0   0   1  0  0
  22 200   0   2   0   3  0  5
  23 310   0   0   0   0  0  0
  24 166   0   4   0   0  0  5
  25 908   0   5   0   6  0  5
  26 417   6   0   0   1  0  0
  27 200   0   2   0   3  0  6
  28 310   0   0   0   0  0  0
  29 166   0   4   0   0  0  6
  30 908   0   5   0   6  0  6
  31 417   7   0   0   1  0  0
  32 200   0   2   0   3  0  7
  33 310   0   0   0   0  0  0
  34 166   0   4   0   0  0  7
  35 908   0   5   0   6  0  7
  36 417   8   0   0   1  0  0
  37 200   0   2   0   3  0  8
  38 310   0   0   0   0  0  0
  39 166   0   4   0   0  0  8
  40 908   0   5   0   6  0  8
  41 417   9   0   0   1  0  0
  42 200   0   2   0   3  0  9
  43 310   0   0   0   0  0  0
  44 166   0   4   0   0  0  9
  45 908   0   5   0   6  0  9
  46 417  10   0   0   1  0  0
  47 200   0   2   0   3  0 10
  48 310   0   0   0   0  0  0
  49 166   0   4   0   0  0 10
  50 908   0   5   0   6  0 10
  51 417   6   0   0   1  0  0
  52 200   0   2   0   3  0 11
  53 310   0   0   0   0  0  0
  54 166   0   4   0   0  0 11
  55 908   0   5   0   6  0 11
  56 417  11   0   0   1  0  0
  57 200   0   2   0   3  0 12
  58 310   0   0   0   0  0  0
  59 166   0   4   0   0  0 12
  60 908   0   5   0   6  0 12
  61 417  12   0   0   1  0  0
  62 200   0   2   0   3  0 13
  63 310   0   0   0   0  0  0
  64 166   0   4   0   0  0 13
  65 908   0   5   0   6  0 13
  66 417  13   0   0   1  0  0
  67 200   0   2   0   3  0 14
  68 310   0   0   0   0  0  0
  69 166   0   4   0   0  0 14
  70 908   0   5   0   6  0 14
  71 417  14   0   0   1  0  0
  72 200   0   2   0   3  0 15
  73 310   0   0   0   0  0  0
  74 166   0   4   0   0  0 15
  75 908   0   5   0   6  0 15
  76 417   1   0   0   1  0  0
  77 200   0   2   0   3  0 16
  78 310   0   0   0   0  0  0
  79 166   0   4   0   0  0 16
  80 908   0   5   0   6  0 16
  81 417  15   0   0   1  0  0
  82 200   0   2   0   3  0 17
  83 310   0   0   0   0  0  0
  84 166   0   4   0   0  0 17
  85 908   0   5   0   6  0 17
  86 417  16   0   0   1  0  0
  87 200   0   2   0   3  0 18
  88 310   0   0   0   0  0  0
  89 166   0   4   0   0  0 18
  90 908   0   5   0   6  0 18
  91 417  13   0   0   1  0  0
  92 200   0   2   0   3  0 19
  93 310   0   0   0   0  0  0
  94 166   0   4   0   0  0 19
  95 908   0   5   0   6  0 19
  96 417  17   0   0   1  0  0
  97 200   0   2   0   3  0 20
  98 310   0   0   0   0  0  0
  99 166   0   4   0   0  0 20
 100 908   0   5   0   6  0 20
 101 417   5   0   0   1  0  0
 102 200   0   2   0   3  0 21
 103 310   0   0   0   0  0  0
 104 166   0   4   0   0  0 21
 105 908   0   5   0   6  0 21
 106 417  18   0   0   1  0  0
 107 200   0   2   0   3  0 22
 108 310   0   0   0   0  0  0
 109 166   0   4   0   0  1 22
 110 908   0   5   0   6  0 22
 111 417  19   0   0   1  0  0
 112 200   0   2   0   3  0 23
 113 310   0   0   0   0  0  0
 114 166   0   4   0   0  2 23
 115 908   0   5   0   6  0 23
 116 417   9   0   0   1  0  0
 117 200   0   2   0   3  0 24
 118 310   0   0   0   0  0  0
 119 166   0   4   0   0  3 24
 120 908   0   5   0   6  0 24
 121 417  20   0   0   1  0  0
 122 200   0   2   0   3  0 25
 123 310   0   0   0   0  0  0
 124 166   0   4   0   0  4 25
 125 908   0   5   0   6  0 25
 126 417  10   0   0   1  0  0
 127 200   0   2   0   3  0 26
 128 310   0   0   0   0  0  0
 129 166   0   4   0   0  5 26
 130 908   0   5   0   6  0 26
 131 417  18   0   0   1  0  0
 132 200   0   2   0   3  0 27
 133 310   0   0   0   0  0  0
 134 166   0   4   0   0  1 27
 135 908   0   5   0   6  0 27
 136 417  21   0   0   1  0  0
 137 200   0   2   0   3  0 28
 138 310   0   0   0   0  0  0
 139 166   0   4   0   0  6 28
 140 908   0   5   0   6  0 28
 141 417   4   0   0   1  0  0
 142 200   0   2   0   3  0 29
 143 310   0   0   0   0  0  0
 144 166   0   4   0   0  7 29
 145 908   0   5   0   6  0 29
 146 417  22   0   0   1  0  0
 147 200   0   2   0   3  0 30
 148 310   0   0   0   0  0  0
 149 166   0   4   0   0  8 30
 150 908   0   5   0   6  0 30
 151 417  14   0   0   1  0  0
 152 200   0   2   0   3  0 31
 153 310   0   0   0   0  0  0
 154 166   0   4   0   0  9 31
 155 908   0   5   0   6  0 31
 156 417  15   0   0   1  0  0
 157 200   0   2   0   3  0 32
 158 310   0   0   0   0  0  0
 159 166   0   4   0   0 10 32
 160 908   0   5   0   6  0 32
 161 417  23   0   0   1  0  0
 162 200   0   2   0   3  0 33
 163 310   0   0   0   0  0  0
 164 166   0   4   0   0 11 33
 165 908   0   5   0   6  0 33
 166 417   2   0   0   1  0  0
 167 200   0   2   0   3  0 34
 168 310   0   0   0   0  0  0
 169 166   0   4   0   0 12 34
 170 908   0   5   0   6  0 34
 171 417  22   0   0   1  0  0
 172 200   0   2   0   3  0 35
 173 310   0   0   0   0  0  0
 174 166   0   4   0   0  8 35
 175 908   0   5   0   6  0 35
 176 417  17   0   0   1  0  0
 177 200   0   2   0   3  0 36
 178 310   0   0   0   0  0  0
 179 166   0   4   0   0 13 36
 180 908   0   5   0   6  0 36
 181 417  11   0   0   1  0  0
 182 200   0   2   0   3  0 37
 183 310   0   0   0   0  0  0
 184 166   0   4   0   0 14 37
 185 908   0   5   0   6  0 37
 186 417  24   0   0   1  0  0
 187 200   0   2   0   3  0 38
 188 310   0   0   0   0  0  0
 189 166   0   4   0   0 15 38
 190 908   0   5   0   6  0 38
 191 417   7   0   0   1  0  0
 192 200   0   2   0   3  0 39
 193 310   0   0   0   0  0  0
 194 166   0   4   0   0 16 39
 195 908   0   5   0   6  0 39
 196 417  20   0   0   1  0  0
 197 200   0   2   0   3  0 40
 198 310   0   0   0   0  0  0
 199 166   0   4   0   0  4 40
 200 908   0   5   0   6  0 40
 201 417  20   0   0   1  0  0
 202 200   0   2   0   3  0 41
 203 310   0   0   0   0  0  0
 204 166   0   4   0   0  4 41
 205 908   0   5   0   6  0 41
 206 417   7   0   0   1  0  0
 207 200   0   2   0   3  0 42
 208 310   0   0   0   0  0  0
 209 166   0   4   0   0 16 42
 210 908   0   5   0   6  0 42
 211 417  24   0   0   1  0  0
 212 200   0   2   0   3  0 43
 213 310   0   0   0   0  0  0
 214 166   0   4   0   0 15 43
 215 908   0   5   0   6  0 43
 216 417  11   0   0   1  0  0
 217 200   0   2   0   3  0 44
 218 310   0   0   0   0  0  0
 219 166   0   4   0   0 14 44
 220 908   0   5   0   6  0 44
 221 417  17   0   0   1  0  0
 222 200   0   2   0   3  0 45
 223 310   0   0   0   0  0  0
 224 166   0   4   0   0 13 45
 225 908   0   5   0   6  0 45
 226 417  22   0   0   1  0  0
 227 200   0   2   0   3  0 46
 228 310   0   0   0   0  0  0
 229 166   0   4   0   0  8 46
 230 908   0   5   0   6  0 46
 231 417   2   0   0   1  0  0
 232 200   0   2   0   3  0 47
 233 310   0   0   0   0  0  0
 234 166   0   4   0   0 12 47
 235 908   0   5   0   6  0 47
 236 417  23   0   0   1  0  0
 237 200   0   2   0   3  0 48
 238 310   0   0   0   0  0  0
 239 166   0   4   0   0 11 48
 240 908   0   5   0   6  0 48
 241 417  15   0   0   1  0  0
 242 200   0   2   0   3  0 49
 243 310   0   0   0   0  0  0
 244 166   0   4   0   0 10 49
 245 908   0   5   0   6  0 49
 246 417  14   0   0   1  0  0
 247 200   0   2   0   3  0 50
 248 310   0   0   0   0  0  0
 249 166   0   4   0   0  9 50
 250 908   0   5   0   6  0 50
 251 417  22   0   0   1  0  0
 252 200   0   2   0   3  0 51
 253 310   0   0   0   0  0  0
 254 166   0   4   0   0  8 51
 255 908   0   5   0   6  0 51
 256 417   4   0   0   1  0  0
 257 200   0   2   0   3  0 52
 258 310   0   0   0   0  0  0
 259 166   0   4   0   0  7 52
 260 908   0   5   0   6  0 52
 261 417  21   0   0   1  0  0
 262 200   0   2   0   3  0 53
 263 310   0   0   0   0  0  0
 264 166   0   4   0   0  6 53
 265 908   0   5   0   6  0 53
 266 417  18   0   0   1  0  0
 267 200   0   2   0   3  0 54
 268 310   0   0   0   0  0  0
 269 166   0   4   0   0  1 54
 270 908   0   5   0   6  0 54
 271 417  10   0   0   1  0  0
 272 200   0   2   0   3  0 55
 273 310   0   0   0   0  0  0
 274 166   0   4   0   0  5 55
 275 908   0   5   0   6  0 55
 276 417  20   0   0   1  0  0
 277 200   0   2   0   3  0 56
 278 310   0   0   0   0  0  0
 279 166   0   4   0   0  4 56
 280 908   0   5   0   6  0 56
 281 417   9   0   0   1  0  0
 282 200   0   2   0   3  0 57
 283 310   0   0   0   0  0  0
 284 166   0   4   0   0  3 57
 285 908   0   5   0   6  0 57
 286 417  19   0   0   1  0  0
 287 200   0   2   0   3  0 58
 288 310   0   0   0   0  0  0
 289 166   0   4   0   0  2 58
 290 908   0   5   0   6  0 58
 291 417  18   0   0   1  0  0
 292 200   0   2   0   3  0 59
 293 310   0   0   0   0  0  0
 294 166   0   4   0   0  1 59
 295 908   0   5   0   6  0 59
 296 417   5   0   0   1  0  0
 297 200   0   2   0   3  0 60
 298 310   0   0   0   0  0  0
 299 166   0   4   0   0 17 60
 300 908   0   5   0   6  0 60
 301 417  17   0   0   1  0  0
 302 200   0   2   0   3  0 61
 303 310   0   0   0   0  0  0
 304 166   0   4   0   0 13 61
 305 908   0   5   0   6  0 61
 306 417  13   0   0   1  0  0
 307 200   0   2   0   3  0 62
 308 310   0   0   0   0  0  0
 309 166   0   4   0   0 18 62
 310 908   0   5   0   6  0 62
[RF]
1      27.4293 1 2 0 2000 100 0 0 0 0 e
2      27.4293 1 2 0 2000 100 0 0 0 2.04204 e
3      27.4293 1 2 0 2000 100 0 0 0 6.12611 e
4      27.4293 1 2 0 2000 100 0 0 0 5.96903 e
5      27.4293 1 2 0 2000 100 0 0 0 1.5708 e
6      27.4293 1 2 0 2000 100 0 0 0 5.49779 e
7      27.4293 1 2 0 2000 100 0 0 0 5.18363 e
8      27.4293 1 2 0 2000 100 0 0 0 0.628319 e
9      27.4293 1 2 0 2000 100 0 0 0 4.39823 e
10      27.4293 1 2 0 2000 100 0 0 0 3.92699 e
11      27.4293 1 2 0 2000 100 0 0 0 2.82743 e
12      27.4293 1 2 0 2000 100 0 0 0 2.19911 e
13      27.4293 1 2 0 2000 100 0 0 0 3.61283 e
14      27.4293 1 2 0 2000 100 0 0 0 0.785398 e
15      27.4293 1 2 0 2000 100 0 0 0 1.25664 e
16      27.4293 1 2 0 2000 100 0 0 0 4.55531 e
17      27.4293 1 2 0 2000 100 0 0 0 4.71239 e
18      27.4293 1 2 0 2000 100 0 0 0 0.471239 e
19      27.4293 1 2 0 2000 100 0 0 0 1.41372 e
20      27.4293 1 2 0 2000 100 0 0 0 3.14159 e
21      27.4293 1 2 0 2000 100 0 0 0 5.34071 e
22      27.4293 1 2 0 2000 100 0 0 0 2.35619 e
23      27.4293 1 2 0 2000 100 0 0 0 3.76991 e
24      27.4293 1 2 0 2000 100 0 0 0 2.98451 e

# Format of trapezoid gradients:
# id amplitude rise flat fall delay
# ..      Hz/m   us   us   us    us
[TRAP]
 1       333333  70 4000  70  30
 2      -369091  80 1840  80   0
 3      -351468  70 1860  70   0
 4       961538 190 1280 190   0
 5  1.18343e+06 240  280 240   0
 6  1.19048e+06 240  880 240   0

# Format of ADC events:
# id num dwell delay freqPPM phasePPM freq phase phase_id
# ..  ..    ns    us     ppm  rad/MHz   Hz   rad       ..
[ADC]
1 320 4000 190 0 0 0 0.471239 0
2 320 4000 190 0 0 0 1.41372 0
3 320 4000 190 0 0 0 4.39823 0
4 320 4000 190 0 0 0 3.14159 0
5 320 4000 190 0 0 0 3.92699 0
6 320 4000 190 0 0 0 5.34071 0
7 320 4000 190 0 0 0 5.96903 0
8 320 4000 190 0 0 0 2.35619 0
9 320 4000 190 0 0 0 0.785398 0
10 320 4000 190 0 0 0 1.25664 0
11 320 4000 190 0 0 0 3.76991 0
12 320 4000 190 0 0 0 2.04204 0
13 320 4000 190 0 0 0 4.71239 0
14 320 4000 190 0 0 0 2.82743 0
15 320 4000 190 0 0 0 2.98451 0
16 320 4000 190 0 0 0 5.18363 0
17 320 4000 190 0 0 0 1.5708 0
18 320 4000 190 0 0 0 3.61283 0
19 320 4000 190 0 0 0 4.55531 0
20 320 4000 190 0 0 0 0 0
21 320 4000 190 0 0 0 2.19911 0
22 320 4000 190 0 0 0 5.49779 0
23 320 4000 190 0 0 0 0.628319 0
24 320 4000 190 0 0 0 6.12611 0

# Format of extension lists:
# id type ref next_id
# next_id of 0 terminates the list
# Extension list is followed by extension specifications
[EXTENSIONS]
1 1 1 0
2 1 2 0
3 1 3 0
4 1 4 0
5 1 5 0
6 1 6 0
7 1 7 0
8 1 8 0
9 1 9 0
10 1 10 0
11 1 11 0
12 1 12 0
13 1 13 0
14 1 14 0
15 1 15 0
16 1 16 0
17 1 17 0
18 1 18 0
19 1 19 0
20 1 20 0
21 1 21 0
22 1 22 0
23 1 23 0
24 1 24 0
25 1 25 0
26 1 26 0
27 1 27 0
28 1 28 0
29 1 29 0
30 1 30 0
31 1 31 0
32 1 32 0
33 1 33 0
34 1 34 0
35 1 35 0
36 1 36 0
37 1 37 0
38 1 38 0
39 1 39 0
40 1 40 0
41 1 41 0
42 1 42 0
43 1 43 0
44 1 44 0
45 1 45 0
46 1 46 0
47 1 47 0
48 1 48 0
49 1 49 0
50 1 50 0
51 1 51 0
52 1 52 0
53 1 53 0
54 1 54 0
55 1 55 0
56 1 56 0
57 1 57 0
58 1 58 0
59 1 59 0
60 1 60 0
61 1 61 0
62 1 62 0
63 1 63 0
64 1 64 0
65 1 65 0
66 1 66 0
67 1 67 0
68 1 68 0
69 1 69 0
70 1 70 0
71 1 71 0
72 1 72 0
73 1 73 0
74 1 74 0
75 1 75 0
76 1 76 0
77 1 77 0
78 1 78 0
79 1 79 0
80 1 80 0
81 1 81 0
82 1 82 0
83 1 83 0
84 1 84 0
85 1 85 0
86 1 86 0
87 1 87 0
88 1 88 0
89 1 89 0
90 1 90 0
91 1 91 0
92 1 92 0
93 1 93 0
94 1 94 0
95 1 95 0
96 1 96 0
97 1 97 0
98 1 98 0
99 1 99 0
100 1 100 0
101 1 101 0
102 1 102 0
103 1 103 0
104 1 104 0
105 1 105 0
106 1 106 0
107 1 107 0
108 1 108 0
109 1 109 0
110 1 110 0
111 1 111 0
112 1 112 0
113 1 113 0
114 1 114 0
115 1 115 0
116 1 116 0
117 1 117 0
118 1 118 0
119 1 119 0
120 1 120 0
121 1 121 0
122 1 122 0
123 1 123 0
124 1 124 0
125 1 125 0
126 1 126 0
127 1 127 0
128 1 128 0
129 1 129 0
130 1 130 0
131 1 131 0
132 1 132 0
133 1 133 0
134 1 134 0
135 1 135 0
136 1 136 0
137 1 137 0
138 1 138 0
139 1 139 0
140 1 140 0
141 1 141 0
142 1 142 0
143 1 143 0
144 1 144 0
145 1 145 0
146 1 146 0
147 1 147 0
148 1 148 0
149 1 149 0
150 1 150 0
151 1 151 0
152 1 152 0
153 1 153 0
154 1 154 0
155 1 155 0
156 1 156 0
157 1 157 0
158 1 158 0
159 1 159 0
160 1 160 0
161 1 161 0
162 1 162 0
163 1 163 0
164 1 164 0
165 1 165 0
166 1 166 0
167 1 167 0
168 1 168 0
169 1 169 0
170 1 170 0
171 1 171 0
172 1 172 0
173 1 173 0
174 1 174 0
175 1 175 0
176 1 176 0
177 1 177 0
178 1 178 0
179 1 179 0
180 1 180 0
181 1 181 0
182 1 182 0
183 1 183 0
184 1 184 0
185 1 185 0
186 1 186 0
187 1 187 0
188 1 188 0
189 1 189 0
190 1 190 0
191 1 191 0
192 1 192 0
193 1 193 0
194 1 194 0
195 1 195 0
196 1 196 0
197 1 197 0
198 1 198 0
199 1 199 0
200 1 200 0
201 1 201 0
202 1 202 0
203 1 203 0
204 1 204 0
205 1 205 0
206 1 206 0
207 1 207 0
208 1 208 0
209 1 209 0
210 1 210 0
211 1 211 0
212 1 212 0
213 1 213 0
214 1 214 0
215 1 215 0
216 1 216 0
217 1 217 0
218 1 218 0
219 1 219 0
220 1 220 0
221 1 221 0
222 1 222 0
223 1 223 0
224 1 224 0
225 1 225 0
226 1 226 0
227 1 227 0
228 1 228 0
229 1 229 0
230 1 230 0
231 1 231 0
232 1 232 0
233 1 233 0
234 1 234 0
235 1 235 0
236 1 236 0
237 1 237 0
238 1 238 0
239 1 239 0
240 1 240 0
241 1 241 0
242 1 242 0
243 1 243 0
244 1 244 0
245 1 245 0
246 1 246 0
247 1 247 0
248 1 248 0
249 1 249 0
250 1 250 0
251 1 251 0
252 1 252 0
253 1 253 0
254 1 254 0
255 1 255 0
256 1 256 0
257 1 257 0
258 1 258 0
259 1 259 0
260 1 260 0
261 1 261 0
262 1 262 0
263 1 263 0
264 1 264 0
265 1 265 0
266 1 266 0
267 1 267 0
268 1 268 0
269 1 269 0
270 1 270 0
271 1 271 0
272 1 272 0
273 1 273 0
274 1 274 0
275 1 275 0
276 1 276 0
277 1 277 0

# Extension specification for rotation events:
# id RotQuat0 RotQuatX RotQuatY RotQuatZ
extension ROTATIONS 1
1  0.99171 0 0 -0.128498
2  0.99248 0 0 -0.122411
3  0.993212 0 0 -0.116319
4  0.993907 0 0 -0.110222
5  0.994565 0 0 -0.104122
6  0.995185 0 0 -0.0980171
7  0.995767 0 0 -0.091909
8  0.996313 0 0 -0.0857973
9  0.99682 0 0 -0.0796824
10  0.99729 0 0 -0.0735646
11  0.997723 0 0 -0.0674439
12  0.998118 0 0 -0.0613207
13  0.998476 0 0 -0.0551952
14  0.998795 0 0 -0.0490677
15  0.999078 0 0 -0.0429383
16  0.999322 0 0 -0.0368072
17  0.999529 0 0 -0.0306748
18  0.999699 0 0 -0.0245412
19  0.999831 0 0 -0.0184067
20  0.999925 0 0 -0.0122715
21  0.999981 0 0 -0.00613588
22  1 0 0 0
23  0.999981 0 0 0.00613588
24  0.999925 0 0 0.0122715
25  0.999831 0 0 0.0184067
26  0.999699 0 0 0.0245412
27  0.999529 0 0 0.0306748
28  0.999322 0 0 0.0368072
29  0.999078 0 0 0.0429383
30  0.998795 0 0 0.0490677
31  0.998476 0 0 0.0551952
32  0.998118 0 0 0.0613207
33  0.997723 0 0 0.0674439
34  0.99729 0 0 0.0735646
35  0.99682 0 0 0.0796824
36  0.996313 0 0 0.0857973
37  0.995767 0 0 0.091909
38  0.995185 0 0 0.0980171
39  0.994565 0 0 0.104122
40  0.993907 0 0 0.110222
41  0.993212 0 0 0.116319
42  0.99248 0 0 0.122411
43  0.99171 0 0 0.128498
44  0.990903 0 0 0.134581
45  0.990058 0 0 0.140658
46  0.989177 0 0 0.14673
47  0.988258 0 0 0.152797
48  0.987301 0 0 0.158858
49  0.986308 0 0 0.164913
50  0.985278 0 0 0.170962
51  0.98421 0 0 0.177004
52  0.983105 0 0 0.18304
53  0.981964 0 0 0.189069
54  0.980785 0 0 0.19509
55  0.97957 0 0 0.201105
56  0.978317 0 0 0.207111
57  0.977028 0 0 0.21311
58  0.975702 0 0 0.219101
59  0.974339 0 0 0.225084
60  0.97294 0 0 0.231058
61  0.971504 0 0 0.237024
62  0.970031 0 0 0.24298
63  0.968522 0 0 0.248928
64  0.966976 0 0 0.254866
65  0.965394 0 0 0.260794
66  0.963776 0 0 0.266713
67  0.962121 0 0 0.272621
68  0.960431 0 0 0.27852
69  0.958703 0 0 0.284408
70  0.95694 0 0 0.290285
71  0.955141 0 0 0.296151
72  0.953306 0 0 0.302006
73  0.951435 0 0 0.30785
74  0.949528 0 0 0.313682
75  0.947586 0 0 0.319502
76  0.945607 0 0 0.32531
77  0.943593 0 0 0.331106
78  0.941544 0 0 0.33689
79  0.939459 0 0 0.342661
80  0.937339 0 0 0.348419
81  0.935184 0 0 0.354164
82  0.932993 0 0 0.359895
83  0.930767 0 0 0.365613
84  0.928506 0 0 0.371317
85  0.92621 0 0 0.377007
86  0.92388 0 0 0.382683
87  0.921514 0 0 0.388345
88  0.919114 0 0 0.393992
89  0.916679 0 0 0.399624
90  0.91421 0 0 0.405241
91  0.911706 0 0 0.410843
92  0.909168 0 0 0.41643
93  0.906596 0 0 0.422
94  0.903989 0 0 0.427555
95  0.901349 0 0 0.433094
96  0.898674 0 0 0.438616
97  0.895966 0 0 0.444122
98  0.893224 0 0 0.449611
99  0.890449 0 0 0.455084
100  0.88764 0 0 0.460539
101  0.884797 0 0 0.465976
102  0.881921 0 0 0.471397
103  0.879012 0 0 0.476799
104  0.87607 0 0 0.482184
105  0.873095 0 0 0.48755
106  0.870087 0 0 0.492898
107  0.867046 0 0 0.498228
108  0.863973 0 0 0.503538
109  0.860867 0 0 0.50883
110  0.857729 0 0 0.514103
111  0.854558 0 0 0.519356
112  0.851355 0 0 0.52459
113  0.84812 0 0 0.529804
114  0.844854 0 0 0.534998
115  0.841555 0 0 0.540171
116  0.838225 0 0 0.545325
117  0.834863 0 0 0.550458
118  0.83147 0 0 0.55557
119  0.828045 0 0 0.560662
120  0.824589 0 0 0.565732
121  0.821103 0 0 0.570781
122  0.817585 0 0 0.575808
123  0.814036 0 0 0.580814
124  0.810457 0 0 0.585798
125  0.806848 0 0 0.59076
126  0.803208 0 0 0.595699
127  0.799537 0 0 0.600616
128  0.795837 0 0 0.605511
129  0.792107 0 0 0.610383
130  0.788346 0 0 0.615232
131  0.784557 0 0 0.620057
132  0.780737 0 0 0.624859
133  0.776888 0 0 0.629638
134  0.77301 0 0 0.634393
135  0.769103 0 0 0.639124
136  0.765167 0 0 0.643832
137  0.761202 0 0 0.648514
138  0.757209 0 0 0.653173
139  0.753187 0 0 0.657807
140  0.749136 0 0 0.662416
141  0.745058 0 0 0.667
142  0.740951 0 0 0.671559
143  0.736817 0 0 0.676093
144  0.732654 0 0 0.680601
145  0.728464 0 0 0.685084
146  0.724247 0 0 0.689541
147  0.720003 0 0 0.693971
148  0.715731 0 0 0.698376
149  0.711432 0 0 0.702755
150  0.707107 0 0 0.707107
151  0.702755 0 0 0.711432
152  0.698376 0 0 0.715731
153  0.693971 0 0 0.720003
154  0.689541 0 0 0.724247
155  0.685084 0 0 0.728464
156  0.680601 0 0 0.732654
157  0.676093 0 0 0.736817
158  0.671559 0 0 0.740951
159  0.667 0 0 0.745058
160  0.662416 0 0 0.749136
161  0.657807 0 0 0.753187
162  0.653173 0 0 0.757209
163  0.648514 0 0 0.761202
164  0.643832 0 0 0.765167
165  0.639124 0 0 0.769103
166  0.634393 0 0 0.77301
167  0.629638 0 0 0.776888
168  0.624859 0 0 0.780737
169  0.620057 0 0 0.784557
170  0.615232 0 0 0.788346
171  0.610383 0 0 0.792107
172  0.605511 0 0 0.795837
173  0.600616 0 0 0.799537
174  0.595699 0 0 0.803208
175  0.59076 0 0 0.806848
176  0.585798 0 0 0.810457
177  0.580814 0 0 0.814036
178  0.575808 0 0 0.817585
179  0.570781 0 0 0.821103
180  0.565732 0 0 0.824589
181  0.560662 0 0 0.828045
182  0.55557 0 0 0.83147
183  0.550458 0 0 0.834863
184  0.545325 0 0 0.838225
185  0.540171 0 0 0.841555
186  0.534998 0 0 0.844854
187  0.529804 0 0 0.84812
188  0.52459 0 0 0.851355
189  0.519356 0 0 0.854558
190  0.514103 0 0 0.857729
191  0.50883 0 0 0.860867
192  0.503538 0 0 0.863973
193  0.498228 0 0 0.867046
194  0.492898 0 0 0.870087
195  0.48755 0 0 0.873095
196  0.482184 0 0 0.87607
197  0.476799 0 0 0.879012
198  0.471397 0 0 0.881921
199  0.465976 0 0 0.884797
200  0.460539 0 0 0.88764
201  0.455084 0 0 0.890449
202  0.449611 0 0 0.893224
203  0.444122 0 0 0.895966
204  0.438616 0 0 0.898674
205  0.433094 0 0 0.901349
206  0.427555 0 0 0.903989
207  0.422 0 0 0.906596
208  0.41643 0 0 0.909168
209  0.410843 0 0 0.911706
210  0.405241 0 0 0.91421
211  0.399624 0 0 0.916679
212  0.393992 0 0 0.919114
213  0.388345 0 0 0.921514
214  0.382683 0 0 0.92388
215  0.377007 0 0 0.92621
216  0.371317 0 0 0.928506
217  0.365613 0 0 0.930767
218  0.359895 0 0 0.932993
219  0.354164 0 0 0.935184
220  0.348419 0 0 0.937339
221  0.342661 0 0 0.939459
222  0.33689 0 0 0.941544
223  0.331106 0 0 0.943593
224  0.32531 0 0 0.945607
225  0.319502 0 0 0.947586
226  0.313682 0 0 0.949528
227  0.30785 0 0 0.951435
228  0.302006 0 0 0.953306
229  0.296151 0 0 0.955141
230  0.290285 0 0 0.95694
231  0.284408 0 0 0.958703
232  0.27852 0 0 0.960431
233  0.272621 0 0 0.962121
234  0.266713 0 0 0.963776
235  0.260794 0 0 0.965394
236  0.254866 0 0 0.966976
237  0.248928 0 0 0.968522
238  0.24298 0 0 0.970031
239  0.237024 0 0 0.971504
240  0.231058 0 0 0.97294
241  0.225084 0 0 0.974339
242  0.219101 0 0 0.975702
243  0.21311 0 0 0.977028
244  0.207111 0 0 0.978317
245  0.201105 0 0 0.97957
246  0.19509 0 0 0.980785
247  0.189069 0 0 0.981964
248  0.18304 0 0 0.983105
249  0.177004 0 0 0.98421
250  0.170962 0 0 0.985278
251  0.164913 0 0 0.986308
252  0.158858 0 0 0.987301
253  0.152797 0 0 0.988258
254  0.14673 0 0 0.989177
255  0.140658 0 0 0.990058
256  0.134581 0 0 0.990903
257  0.128498 0 0 0.99171
258  0.122411 0 0 0.99248
259  0.116319 0 0 0.993212
260  0.110222 0 0 0.993907
261  0.104122 0 0 0.994565
262  0.0980171 0 0 0.995185
263  0.091909 0 0 0.995767
264  0.0857973 0 0 0.996313
265  0.0796824 0 0 0.99682
266  0.0735646 0 0 0.99729
267  0.0674439 0 0 0.997723
268  0.0613207 0 0 0.998118
269  0.0551952 0 0 0.998476
270  0.0490677 0 0 0.998795
271  0.0429383 0 0 0.999078
272  0.0368072 0 0 0.999322
273  0.0306748 0 0 0.999529
274  0.0245412 0 0 0.999699
275  0.0184067 0 0 0.999831
276  0.0122715 0 0 0.999925
277  0.00613588 0 0 0.999981

# Sequence Shapes
[SHAPES]

shape_id 1
num_samples 4000
3.85627869e-11
1.04171238e-09
4.82512116e-09
1.32466171e-08
2.81675804e-08
5.14528842e-08
8.49708342e-08
1.30593109e-07
1.90194699e-07
2.65653846e-07
3.58851985e-07
4.7167368e-07
6.06006564e-07
7.63741281e-07
9.46771418e-07
1.15699345e-06
1.39630668e-06
1.66661316e-06
1.96981767e-06
2.30782759e-06
2.6825529e-06
3.0959061e-06
3.54980212e-06
4.0461583e-06
4.58689428e-06
5.17393199e-06
5.80919554e-06
6.49461119e-06
7.23210725e-06
8.02361408e-06
8.87106393e-06
9.77639098e-06
1.07415312e-05
1.17684223e-05
1.28590038e-05
1.40152166e-05
1.52390034e-05
1.65323083e-05
1.78970768e-05
1.93352559e-05
2.08487936e-05
2.24396394e-05
2.4109744e-05
2.58610591e-05
2.76955373e-05
2.96151325e-05
3.16217992e-05
3.37174929e-05
3.59041699e-05
3.81837871e-05
4.0558302e-05
4.3029673e-05
4.55998586e-05
4.82708179e-05
5.10445106e-05
5.39228963e-05
5.69079352e-05
6.00015874e-05
6.32058133e-05
6.65225733e-05
6.99538278e-05
7.35015369e-05
7.71676608e-05
8.09541593e-05
8.48629921e-05
8.88961183e-05
9.30554966e-05
9.73430855e-05
0.000101760842
0.000106310725
0.000110994688
0.000115814689
0.000120772682
0.000125870621
0.000131110458
0.000136494146
0.000142023634
0.000147700873
0.000153527811
0.000159506395
0.00016563857
0.00017192628
0.000178371469
0.000184976075
0.00019174204
0.000198671301
0.000205765792
0.000213027449
0.000220458203
0.000228059983
0.000235834718
0.000243784334
0.000251910753
0.000260215896
0.000268701683
0.000277370029
0.000286222849
0.000295262054
0.000304489552
0.000313907248
0.000323517047
0.000333320848
0.000343320548
0.000353518043
0.000363915221
0.000374513973
0.000385316183
0.000396323732
0.000407538498
0.000418962356
0.000430597178
0.000442444831
0.000454507179
0.000466786083
0.000479283399
0.00049200098
0.000504940675
0.000518104329
0.000531493781
0.00054511087
0.000558957427
0.000573035281
0.000587346255
0.000601892169
0.000616674838
0.000631696072
0.000646957677
0.000662461454
0.000678209199
0.000694202704
0.000710443755
0.000726934133
0.000743675616
0.000760669975
0.000777918975
0.000795424378
0.00081318794
0.00083121141
0.000849496533
0.000868045049
0.00088685869
0.000905939185
0.000925288256
0.00094490762
0.000964798986
0.000984964058
0.00100540454
0.00102612211
0.00104711847
0.00106839529
0.00108995425
0.00111179702
0.00113392524
0.00115634059
0.0011790447
0.00120203922
0.00122532578
0.00124890601
0.00127278153
0.00129695395
0.00132142488
0.00134619592
0.00137126865
0.00139664468
0.00142232556
0.00144831288
0.00147460819
0.00150121305
0.00152812901
0.00155535761
0.00158290038
0.00161075885
0.00163893453
0.00166742893
0.00169624355
0.00172537988
0.00175483942
0.00178462363
0.00181473398
0.00184517193
0.00187593894
0.00190703645
0.00193846589
0.00197022868
0.00200232625
0.00203476
0.00206753133
0.00210064164
0.0021340923
0.00216788468
0.00220202016
0.00223650008
0.00227132578
0.00230649862
0.0023420199
0.00237789096
0.00241411308
0.00245068759
0.00248761575
0.00252489886
0.00256253817
0.00260053496
0.00263889046
0.00267760592
0.00271668257
0.00275612162
0.00279592428
0.00283609176
0.00287662524
0.0029175259
0.0029587949
0.00300043341
0.00304244258
0.00308482352
0.00312757738
0.00317070527
0.00321420828
0.00325808752
0.00330234407
0.00334697899
0.00339199334
0.00343738818
0.00348316455
0.00352932346
0.00357586593
0.00362279298
0.00367010558
0.00371780472
0.00376589137
0.00381436649
0.00386323102
0.00391248589
0.00396213203
0.00401217036
0.00406260176
0.00411342712
0.00416464732
0.00421626322
0.00426827567
0.0043206855
0.00437349355
0.00442670063
0.00448030753
0.00453431505
0.00458872396
0.00464353502
0.00469874898
0.00475436659
0.00481038856
0.00486681561
0.00492364844
0.00498088773
0.00503853415
0.00509658838
0.00515505104
0.00521392278
0.00527320422
0.00533289596
0.0053929986
0.00545351272
0.00551443889
0.00557577765
0.00563752955
0.00569969512
0.00576227486
0.00582526928
0.00588867885
0.00595250406
0.00601674535
0.00608140318
0.00614647797
0.00621197013
0.00627788006
0.00634420816
0.00641095479
0.00647812032
0.00654570508
0.00661370941
0.00668213361
0.006750978
0.00682024285
0.00688992844
0.00696003502
0.00703056284
0.00710151212
0.00717288308
0.0072446759
0.00731689078
0.00738952789
0.00746258736
0.00753606935
0.00760997396
0.00768430132
0.00775905151
0.00783422461
0.00790982068
0.00798583976
0.00806228188
0.00813914707
0.00821643532
0.00829414661
0.00837228091
0.00845083817
0.00852981834
0.00860922133
0.00868904704
0.00876929538
0.0088499662
0.00893105937
0.00901257473
0.00909451211
0.00917687132
0.00925965214
0.00934285436
0.00942647773
0.00951052202
0.00959498693
0.00967987218
0.00976517748
0.0098509025
0.0099370469
0.0100236103
0.0101105924
0.0101979928
0.010285811
0.0103740467
0.0104626994
0.0105517687
0.010641254
0.010731155
0.0108214711
0.0109122017
0.0110033464
0.0110949046
0.0111868757
0.0112792591
0.0113720543
0.0114652605
0.0115588773
0.0116529038
0.0117473395
0.0118421836
0.0119374355
0.0120330943
0.0121291595
0.0122256301
0.0123225055
0.0124197848
0.0125174672
0.0126155519
0.0127140381
0.0128129248
0.0129122112
0.0130118965
0.0131119796
0.0132124596
0.0133133356
0.0134146067
0.0135162718
0.0136183299
0.0137207799
0.013823621
0.0139268519
0.0140304716
0.0141344791
0.0142388732
0.0143436527
0.0144488165
0.0145543635
0.0146602925
0.0147666022
0.0148732915
0.014980359
0.0150878036
0.015195624
0.0153038188
0.0154123867
0.0155213265
0.0156306367
0.0157403161
0.0158503631
0.0159607765
0.0160715547
0.0161826963
0.0162942
0.0164060641
0.0165182873
0.0166308679
0.0167438045
0.0168570954
0.0169707392
0.0170847342
0.0171990789
0.0173137715
0.0174288105
0.0175441942
0.0176599209
0.0177759888
0.0178923964
0.0180091418
0.0181262233
0.0182436391
0.0183613873
0.0184794663
0.0185978742
0.018716609
0.018835669
0.0189550523
0.0190747568
0.0191947808
0.0193151223
0.0194357792
0.0195567497
0.0196780317
0.0197996232
0.0199215221
0.0200437265
0.0201662341
0.020289043
0.0204121509
0.0205355559
0.0206592556
0.020783248
0.0209075309
0.0210321019
0.021156959
0.0212820999
0.0214075222
0.0215332238
0.0216592022
0.0217854552
0.0219119805
0.0220387756
0.0221658382
0.022293166
0.0224207563
0.0225486069
0.0226767153
0.022805079
0.0229336955
0.0230625623
0.0231916768
0.0233210365
0.0234506389
0.0235804813
0.0237105611
0.0238408758
0.0239714226
0.0241021988
0.0242332019
0.0243644291
0.0244958777
0.0246275449
0.024759428
0.0248915242
0.0250238307
0.0251563447
0.0252890633
0.0254219838
0.0255551031
0.0256884184
0.0258219269
0.0259556256
0.0260895115
0.0262235816
0.026357833
0.0264922627
0.0266268677
0.0267616448
0.0268965911
0.0270317034
0.0271669787
0.0273024139
0.0274380057
0.0275737511
0.0277096469
0.0278456898
0.0279818767
0.0281182044
0.0282546695
0.0283912689
0.0285279992
0.0286648571
0.0288018393
0.0289389425
0.0290761633
0.0292134983
0.0293509441
0.0294884974
0.0296261546
0.0297639123
0.0299017671
0.0300397155
0.0301777539
0.0303158788
0.0304540867
0.0305923741
